frame,cls,conf,x1,y1,x2,y2
0,2,0.8900370597839355,1013.736572265625,175.12957763671875,1098.7718505859375,247.44776916503906
0,2,0.8536867499351501,194.574462890625,520.6865844726562,351.2802429199219,624.8221435546875
0,2,0.5303379893302917,1092.3956298828125,856.61279296875,1297.4107666015625,1042.0155029296875
0,2,0.48933252692222595,1614.107666015625,268.3248596191406,1716.851806640625,363.0494689941406
0,2,0.4841252267360687,1410.07763671875,2.5214223861694336,1482.6536865234375,52.506717681884766
0,7,0.4235326945781708,1199.371337890625,40.654014587402344,1283.571533203125,128.16400146484375
0,2,0.37764015793800354,1200.0245361328125,42.6742057800293,1281.0084228515625,126.97051239013672
1,2,0.8624570369720459,1020.3037719726562,173.35377502441406,1100.6531982421875,244.2118377685547
1,2,0.8403633832931519,204.4534149169922,517.2669677734375,360.2492980957031,622.1370849609375
1,2,0.6667052507400513,1612.8621826171875,271.83612060546875,1714.6453857421875,367.1512145996094
1,2,0.6268140077590942,1091.6243896484375,865.2206420898438,1292.7840576171875,1048.567626953125
1,7,0.37955349683761597,1201.237548828125,45.21953201293945,1283.8148193359375,125.8147964477539
1,2,0.3735179901123047,1411.937255859375,2.1733617782592773,1484.505859375,50.21609115600586
1,2,0.326532781124115,1201.9925537109375,42.45292282104492,1283.9981689453125,125.2047119140625
3,2,0.8773738145828247,220.57406616210938,510.48651123046875,380.0879821777344,612.5468139648438
3,2,0.8101776242256165,1028.5030517578125,169.1813507080078,1108.0235595703125,237.04518127441406
3,2,0.6813894510269165,1089.7757568359375,886.8722534179688,1289.3204345703125,1059.9317626953125
3,2,0.5039036870002747,1609.0330810546875,279.21527099609375,1710.6397705078125,372.1847839355469
3,2,0.45913150906562805,1207.8125,41.72227478027344,1288.556396484375,122.10953521728516
3,7,0.4495900571346283,1608.185302734375,277.7391662597656,1710.509765625,373.4974670410156
3,2,0.36394041776657104,1419.412109375,0.0,1487.711181640625,45.93663024902344
4,2,0.8682229518890381,1031.399169921875,167.33367919921875,1111.8172607421875,233.337890625
4,2,0.8290237784385681,231.5262451171875,506.2928771972656,386.1940002441406,610.4530639648438
4,2,0.6858422160148621,1086.999755859375,893.5447998046875,1289.5777587890625,1066.317626953125
4,2,0.577383816242218,1604.526123046875,281.1552429199219,1713.579345703125,375.9322814941406
4,2,0.5096876621246338,1210.5076904296875,40.11946105957031,1290.77734375,119.97750091552734
4,7,0.27706071734428406,1602.9964599609375,280.1723327636719,1713.8155517578125,377.2727966308594
5,2,0.8541490435600281,1032.9010009765625,163.53419494628906,1115.131103515625,230.23631286621094
5,2,0.8041013479232788,238.91702270507812,505.23834228515625,395.22491455078125,608.6090698242188
5,2,0.7014032602310181,1084.6036376953125,898.4974365234375,1289.526123046875,1073.9227294921875
5,2,0.5767374634742737,1602.5084228515625,282.90374755859375,1708.5572509765625,377.77984619140625
5,2,0.5228065848350525,1211.3052978515625,38.26399612426758,1293.127685546875,118.89958953857422
5,2,0.34964510798454285,1422.658203125,0.0,1491.4183349609375,41.846649169921875
5,7,0.2898488938808441,1600.7696533203125,281.97821044921875,1709.065185546875,379.4037780761719
6,2,0.840404212474823,1034.7908935546875,160.91217041015625,1119.8819580078125,227.51165771484375
6,2,0.8400917053222656,246.76217651367188,504.2962646484375,401.9048767089844,605.8106689453125
6,2,0.7002639770507812,1083.0975341796875,905.5439453125,1289.583740234375,1077.98095703125
6,2,0.44937267899513245,1600.7523193359375,285.3315124511719,1706.2899169921875,378.75860595703125
6,2,0.4164312183856964,1212.779052734375,33.32066345214844,1294.5030517578125,117.37742614746094
6,7,0.29924651980400085,1211.4453125,33.36298370361328,1293.8218994140625,118.90809631347656
6,5,0.2806658446788788,1211.8709716796875,29.642051696777344,1293.667236328125,116.16158294677734
6,7,0.2542409598827362,1597.074462890625,284.90728759765625,1705.820068359375,380.2747497558594
8,2,0.7610042691230774,264.8306884765625,498.00054931640625,416.6415710449219,600.6126708984375
8,2,0.7085188627243042,1041.2373046875,157.67501831054688,1123.4556884765625,224.85037231445312
8,2,0.5923801064491272,1081.019287109375,911.6641845703125,1294.44140625,1079.104248046875
8,2,0.4340592920780182,1215.2431640625,31.226789474487305,1296.76416015625,112.18462371826172
8,2,0.4200378954410553,1597.5543212890625,287.1875,1704.7314453125,388.45306396484375
8,2,0.394765168428421,0.09570693969726562,709.0200805664062,22.497455596923828,820.5664672851562
8,7,0.37938687205314636,1595.8114013671875,286.97021484375,1705.0997314453125,387.78204345703125
8,7,0.36054784059524536,1216.5611572265625,31.030288696289062,1297.64794921875,114.27912139892578
8,2,0.33526095747947693,1428.6412353515625,0.8031206130981445,1498.859619140625,34.84162902832031
10,2,0.8414729833602905,1046.1552734375,151.9595947265625,1128.7552490234375,220.112548828125
10,2,0.8380306363105774,281.1253967285156,494.5763244628906,433.2908020019531,595.1791381835938
10,2,0.64732825756073,1595.04052734375,294.0218811035156,1702.868408203125,392.4262390136719
10,2,0.5722458362579346,1079.1722412109375,923.4083862304688,1289.6890869140625,1077.913818359375
10,2,0.4027692377567291,1221.377197265625,26.522323608398438,1299.9752197265625,108.74677276611328
10,7,0.3244452178478241,0.1017293930053711,676.8086547851562,47.05989074707031,819.3837890625
10,2,0.30198201537132263,0.06628990173339844,680.340087890625,46.517452239990234,818.574462890625
10,7,0.2655506432056427,1223.4375,27.423540115356445,1300.79150390625,109.10428619384766
12,2,0.8370669484138489,297.4231872558594,486.0332336425781,448.7684631347656,586.3804931640625
12,2,0.8085885643959045,1078.04931640625,941.7442016601562,1284.2744140625,1076.5330810546875
12,2,0.7435160279273987,1055.8231201171875,147.62081909179688,1133.997802734375,213.21826171875
12,2,0.583130955696106,0.04578208923339844,651.562744140625,74.20713806152344,814.74267578125
12,7,0.3180966377258301,1589.3236083984375,298.6524353027344,1700.5894775390625,396.1412658691406
12,7,0.30442383885383606,1224.705078125,16.17392349243164,1302.9317626953125,104.85796356201172
13,2,0.8612291812896729,303.7606201171875,483.52239990234375,454.353515625,584.5909423828125
13,2,0.784089207649231,1057.7696533203125,145.02919006347656,1137.581298828125,210.65963745117188
13,2,0.6651138663291931,1081.2073974609375,948.3724975585938,1284.3411865234375,1080.0
13,2,0.5260917544364929,0.0208740234375,647.7943725585938,82.44782257080078,811.1011962890625
13,2,0.4231351315975189,1586.7818603515625,302.5792236328125,1695.20849609375,399.7484436035156
13,7,0.4213344156742096,0.119110107421875,647.4627685546875,84.19892120361328,810.6798706054688
13,7,0.30102992057800293,1225.8590087890625,8.978230476379395,1306.1990966796875,102.45540618896484
17,2,0.8337865471839905,339.3983459472656,474.3659362792969,483.276123046875,573.95751953125
17,2,0.7124732136726379,1070.9981689453125,134.44802856445312,1148.1014404296875,202.32041931152344
17,2,0.5432866215705872,0.0703582763671875,639.7073364257812,131.7216339111328,788.9946899414062
17,7,0.48668286204338074,0.20335006713867188,638.985595703125,131.24163818359375,789.8445434570312
17,7,0.37779101729393005,1235.9609375,10.34967041015625,1312.7186279296875,96.15766143798828
17,7,0.371458500623703,1578.265869140625,310.3546447753906,1690.868408203125,410.9928894042969
17,2,0.35071057081222534,1081.084716796875,972.4427490234375,1289.59912109375,1078.29345703125
19,2,0.8749820590019226,1076.1617431640625,133.82936096191406,1153.120849609375,198.40859985351562
19,2,0.874660849571228,352.5916748046875,469.62689208984375,497.70404052734375,563.6320190429688
19,2,0.5646687150001526,1573.7724609375,317.2012634277344,1684.1484375,418.322021484375
19,2,0.4914044439792633,0.20885467529296875,629.6046752929688,155.0891571044922,782.0234985351562
19,7,0.4830540716648102,0.30237579345703125,630.19287109375,155.8509063720703,782.9156494140625
19,7,0.3971198797225952,1238.625244140625,5.074802398681641,1315.3460693359375,91.25532531738281
19,2,0.3230169415473938,1081.0904541015625,978.706787109375,1291.884033203125,1072.830322265625
20,2,0.8780364990234375,1078.5555419921875,131.83851623535156,1156.2490234375,196.2211456298828
20,2,0.8509957194328308,360.23089599609375,465.85455322265625,504.16864013671875,561.8010864257812
20,2,0.6152670979499817,1573.0059814453125,318.7734680175781,1682.4906005859375,421.6546630859375
20,2,0.6004987359046936,0.2712593078613281,626.4866333007812,164.7366485595703,777.8071899414062
20,7,0.4086342453956604,1240.8333740234375,3.9833450317382812,1317.5706787109375,89.19696807861328
20,2,0.3019616901874542,1080.327880859375,958.29736328125,1309.5787353515625,1072.089111328125
22,2,0.8823254704475403,1083.5489501953125,126.59605407714844,1162.2794189453125,191.6949005126953
22,2,0.8094438910484314,374.96295166015625,458.6014709472656,520.7280883789062,555.7005615234375
22,2,0.667553186416626,0.0,618.8449096679688,187.18124389648438,770.4650268554688
22,7,0.631403386592865,1567.1715087890625,322.62109375,1679.9110107421875,428.0810852050781
22,2,0.5595096349716187,1568.602294921875,323.4646911621094,1680.017578125,427.8912048339844
22,7,0.4794568717479706,1246.5157470703125,3.9122400283813477,1321.1217041015625,86.9360580444336
22,2,0.30188488960266113,1082.22412109375,967.9537353515625,1304.362548828125,1078.7567138671875
25,2,0.8211662173271179,1090.7557373046875,120.2977294921875,1170.0,185.08438110351562
25,2,0.8136236071586609,400.10357666015625,453.96240234375,542.0247802734375,549.7304077148438
25,2,0.6126426458358765,1563.8470458984375,334.0887451171875,1673.5806884765625,433.6131591796875
25,7,0.5968509912490845,1563.2330322265625,332.0960693359375,1674.2608642578125,437.1515808105469
25,2,0.5056191682815552,25.195587158203125,611.69921875,218.92703247070312,760.5185546875
25,7,0.48386329412460327,24.653366088867188,611.0965576171875,218.9147186279297,761.3307495117188
25,7,0.414447158575058,1249.887939453125,3.52005672454834,1325.585205078125,81.80940246582031
26,2,0.8554391860961914,409.4424133300781,451.73199462890625,546.6713256835938,547.6248779296875
26,2,0.7422962188720703,1095.425537109375,118.37796020507812,1172.4791259765625,182.9397735595703
26,2,0.5978976488113403,1557.27099609375,333.9708557128906,1672.934326171875,436.82916259765625
26,2,0.5274722576141357,35.25597381591797,609.1339111328125,234.44100952148438,756.4977416992188
26,7,0.4994976818561554,34.85918426513672,608.076416015625,235.05271911621094,755.5169677734375
26,7,0.4753675162792206,1557.154541015625,332.72509765625,1673.6824951171875,438.4786682128906
26,7,0.39275822043418884,1251.2744140625,3.1427106857299805,1328.141357421875,79.58814239501953
26,2,0.269429087638855,1252.6182861328125,1.9981498718261719,1328.7843017578125,81.73828125
28,2,0.8494172692298889,1101.8275146484375,116.44244384765625,1176.899658203125,178.79534912109375
28,2,0.8379423022270203,420.7763671875,447.2644958496094,561.9069213867188,538.4817504882812
28,2,0.7292133569717407,1554.2076416015625,336.8846740722656,1670.6290283203125,441.0516357421875
28,2,0.5841243267059326,61.59955596923828,597.0596923828125,251.80508422851562,750.4716796875
28,7,0.46188756823539734,1252.8223876953125,1.4741935729980469,1333.1324462890625,78.34581756591797
28,7,0.347850501537323,1552.241455078125,337.7803955078125,1672.54248046875,442.3534240722656
29,2,0.873401939868927,430.086181640625,444.4398193359375,569.68359375,537.4502563476562
29,2,0.8279172778129578,1105.3031005859375,114.48731231689453,1180.3199462890625,176.38670349121094
29,7,0.597156822681427,1549.00634765625,339.39459228515625,1669.541015625,445.0036926269531
29,2,0.5927678942680359,72.36817932128906,596.4873046875,263.917724609375,745.7352905273438
29,7,0.45154809951782227,72.35380554199219,597.318115234375,263.9971618652344,745.1814575195312
29,7,0.42668065428733826,1258.7542724609375,0.7685508728027344,1334.6287841796875,76.15524291992188
29,2,0.2837578356266022,1549.973876953125,341.3413391113281,1669.7076416015625,445.3978271484375
33,2,0.8683356642723083,458.156982421875,431.8495178222656,595.5480346679688,525.9299926757812
33,2,0.7953317165374756,1113.24365234375,102.44194793701172,1190.2435302734375,168.17689514160156
33,7,0.4904021918773651,1541.9564208984375,353.51898193359375,1657.8431396484375,455.7739562988281
33,7,0.4587322473526001,118.37579345703125,589.295166015625,306.19879150390625,731.57666015625
33,2,0.4353671073913574,1542.6097412109375,353.1848449707031,1657.9456787109375,453.77630615234375
33,2,0.4286526143550873,118.73987579345703,589.9424438476562,306.4256286621094,730.71044921875
33,7,0.36912044882774353,1263.0557861328125,1.031916618347168,1340.0845947265625,69.54174041748047
35,2,0.8165854215621948,472.7007751464844,427.6079406738281,609.0532836914062,520.366943359375
35,2,0.7949288487434387,1116.1080322265625,100.05862426757812,1194.450927734375,163.21531677246094
35,7,0.5622991919517517,1537.9381103515625,355.7101135253906,1653.3070068359375,462.5686340332031
35,7,0.552035391330719,142.09507751464844,582.9251708984375,328.5862121582031,725.04052734375
35,2,0.43231385946273804,141.75804138183594,583.6868286132812,328.5002746582031,723.2298583984375
35,7,0.33241480588912964,1269.3603515625,0.2934722900390625,1343.5213623046875,65.62644958496094
40,2,0.8630304932594299,1132.1346435546875,91.3319320678711,1204.728271484375,154.29978942871094
40,2,0.8229783177375793,507.9624328613281,414.080322265625,639.8616943359375,504.9866027832031
40,7,0.534650444984436,1521.954345703125,372.38250732421875,1642.427490234375,480.69305419921875
40,7,0.5333790183067322,197.15457153320312,566.9116821289062,378.4111328125,703.9942016601562
40,2,0.46729937195777893,1524.1339111328125,372.12396240234375,1640.82275390625,480.8777160644531
40,2,0.41899287700653076,198.0420684814453,566.7464599609375,377.054931640625,704.0828857421875
40,7,0.3480554521083832,1274.9150390625,0.028232574462890625,1348.09716796875,56.575836181640625
42,2,0.8902829885482788,521.5289916992188,408.60205078125,652.1729736328125,500.2353515625
42,2,0.8013055920600891,1136.0657958984375,86.0881576538086,1208.1104736328125,149.23489379882812
42,7,0.6078192591667175,220.8137969970703,565.054931640625,402.1515197753906,696.9701538085938
42,2,0.5145076513290405,1520.326904296875,381.7737121582031,1634.3199462890625,485.3409118652344
42,7,0.49297159910202026,1519.08984375,378.2403259277344,1635.5101318359375,486.8115234375
42,7,0.2909190058708191,1278.03271484375,0.0,1352.6221923828125,53.36458969116211
42,2,0.26088759303092957,220.12445068359375,562.9075317382812,399.33575439453125,696.8460693359375
43,2,0.8946232199668884,530.6292114257812,406.67626953125,659.7702026367188,496.1693420410156
43,2,0.8529758453369141,1137.143798828125,85.3330307006836,1211.868408203125,148.9701385498047
43,2,0.8382171988487244,229.40313720703125,560.9142456054688,407.2361145019531,693.3198852539062
43,7,0.4929087460041046,1516.8212890625,379.4063720703125,1630.974365234375,489.1553039550781
43,2,0.36964908242225647,1517.47265625,382.248046875,1629.960205078125,487.9412841796875
43,2,0.27837154269218445,1279.5146484375,0.0,1353.038818359375,51.66057586669922
43,7,0.2599197328090668,1281.3438720703125,0.0,1352.05908203125,52.12859344482422
46,2,0.8426049947738647,547.3037109375,402.0132751464844,677.58203125,488.6937561035156
46,2,0.8260483145713806,1140.067138671875,76.71966552734375,1217.6002197265625,141.3837890625
46,7,0.5165525078773499,263.07623291015625,547.7089233398438,432.5109558105469,682.95849609375
46,2,0.4665980637073517,259.5716857910156,549.0592041015625,430.983154296875,681.8829345703125
46,7,0.32514622807502747,1510.685302734375,387.708251953125,1625.712158203125,496.98046875
48,2,0.8033773303031921,562.2769775390625,397.02081298828125,689.9468994140625,484.0882873535156
48,2,0.7678341269493103,1149.7254638671875,74.18262481689453,1220.5576171875,135.67263793945312
48,2,0.5787357687950134,281.8349304199219,544.4381713867188,454.02081298828125,674.206298828125
48,7,0.47029581665992737,1501.2322998046875,395.32781982421875,1617.88916015625,503.39849853515625
48,7,0.43790125846862793,283.1047668457031,543.0250854492188,452.1665344238281,676.3665161132812
52,2,0.8169116973876953,589.05419921875,383.92254638671875,712.9638671875,469.8104553222656
52,2,0.7690179944038391,1154.65234375,70.08277130126953,1226.85595703125,130.67103576660156
52,2,0.7212693691253662,323.0840148925781,530.5198974609375,491.091064453125,659.5695190429688
52,7,0.5516663193702698,1492.5260009765625,404.1098327636719,1610.1324462890625,518.4051513671875
52,2,0.39307111501693726,1492.6690673828125,405.71978759765625,1609.801025390625,518.0068359375
53,2,0.8267377018928528,593.912109375,383.304931640625,716.4915161132812,467.37579345703125
53,2,0.7030487060546875,1158.188232421875,69.54176330566406,1231.394287109375,127.62373352050781
53,7,0.6176497936248779,1490.4825439453125,403.99310302734375,1610.94580078125,522.339111328125
53,2,0.6167644262313843,332.23272705078125,528.3640747070312,496.07275390625,657.0448608398438
53,7,0.4711987376213074,334.1049499511719,527.1497192382812,496.5257263183594,656.96875
54,2,0.8302074074745178,598.0428466796875,381.45556640625,726.5341796875,465.43450927734375
54,7,0.6909099221229553,1488.856201171875,405.5763244628906,1609.941650390625,523.788818359375
54,2,0.6894810199737549,1161.2117919921875,69.57923126220703,1233.5252685546875,125.65267181396484
54,2,0.6251516342163086,344.28204345703125,526.3118286132812,504.5896911621094,652.2457275390625
55,2,0.8042375445365906,604.670166015625,379.8040771484375,731.189453125,464.7935791015625
55,7,0.6447519063949585,1485.3057861328125,409.34197998046875,1606.8658447265625,525.0316772460938
55,2,0.6331034898757935,1164.891357421875,66.05962371826172,1236.538818359375,125.21502685546875
55,2,0.6216577291488647,354.56109619140625,522.83251953125,514.8849487304688,649.3536987304688
57,2,0.801608145236969,617.9019165039062,373.323974609375,741.4685668945312,456.3831787109375
57,2,0.7086096405982971,1166.0400390625,59.447731018066406,1240.8953857421875,120.15083312988281
57,2,0.6431713700294495,371.82745361328125,521.8162231445312,535.4695434570312,644.8261108398438
57,7,0.5238401889801025,1477.14111328125,417.9939270019531,1604.150390625,533.6978149414062
57,7,0.51953125,371.4051818847656,520.1342163085938,534.582275390625,643.7552490234375
57,2,0.2855098843574524,1478.2144775390625,417.79888916015625,1604.5751953125,534.7018432617188
59,2,0.8361455202102661,632.3538818359375,366.30377197265625,756.0181884765625,452.7872314453125
59,2,0.7831977605819702,1171.668701171875,56.48920822143555,1242.3338623046875,115.60855865478516
59,2,0.7300302386283875,391.4248352050781,515.3910522460938,551.0647583007812,634.333251953125
59,2,0.6303924918174744,1474.3629150390625,425.7931823730469,1598.73193359375,540.9337158203125
59,7,0.6191790699958801,1473.0311279296875,425.0285339355469,1598.9908447265625,539.5617065429688
59,7,0.43186241388320923,389.6344299316406,513.507568359375,551.0590209960938,636.46435546875
60,2,0.8696004748344421,639.0258178710938,363.4213562011719,760.57275390625,445.8742980957031
60,2,0.7727638483047485,1174.4818115234375,51.3939094543457,1243.61328125,112.03843688964844
60,2,0.7463050484657288,400.25531005859375,512.2291259765625,559.4620361328125,632.6325073242188
60,2,0.6628994941711426,1469.9752197265625,429.3958740234375,1596.979736328125,544.346923828125
60,7,0.5676942467689514,1470.0455322265625,428.5326232910156,1596.2857666015625,542.6563720703125
60,7,0.533454418182373,401.5774230957031,510.740478515625,560.1187133789062,634.0433349609375
61,2,0.8689727783203125,645.0413818359375,362.5293273925781,765.9757690429688,443.9116516113281
61,2,0.7150200605392456,1176.228271484375,49.287437438964844,1244.156005859375,111.2431411743164
61,2,0.6556760668754578,1467.2783203125,428.96539306640625,1593.0662841796875,547.1668090820312
61,7,0.5886908769607544,410.28204345703125,505.46923828125,568.0853271484375,630.4156494140625
61,7,0.5280046463012695,0.08910942077636719,658.1519775390625,40.26601791381836,835.4509887695312
61,2,0.5068769454956055,408.5118713378906,507.892578125,567.5640258789062,631.20751953125
61,7,0.500447154045105,1467.93017578125,428.5111999511719,1592.9989013671875,546.9624633789062
63,2,0.8208621144294739,655.0992431640625,360.0562438964844,775.6796875,441.8771057128906
63,7,0.6139748096466064,1462.928466796875,436.1955871582031,1587.9942626953125,552.5285034179688
63,2,0.6046975255012512,1463.873046875,434.56201171875,1588.466796875,551.3988647460938
63,7,0.5942592620849609,427.65838623046875,500.54681396484375,583.0155029296875,625.089111328125
63,2,0.5644276142120361,428.10772705078125,502.1490783691406,584.1377563476562,623.5858764648438
63,2,0.5625938177108765,1178.193603515625,48.81801223754883,1248.80859375,108.75419616699219
63,7,0.5324356555938721,0.0070953369140625,651.7658081054688,67.18242645263672,834.3311157226562
65,2,0.8024114370346069,1181.0855712890625,47.71178436279297,1251.198486328125,107.11161804199219
65,2,0.795993447303772,667.2037963867188,355.44158935546875,787.8146362304688,438.0120849609375
65,7,0.7613928914070129,0.1270580291748047,642.1296997070312,90.31201934814453,826.9461059570312
65,2,0.7290892004966736,445.815673828125,497.1167907714844,600.1499633789062,615.096923828125
65,7,0.6836373805999756,1453.209716796875,442.77484130859375,1584.442138671875,559.4412231445312
65,2,0.39175963401794434,1454.6917724609375,442.4261169433594,1584.109619140625,558.442626953125
66,2,0.7640282511711121,675.7648315429688,350.9825134277344,792.7879028320312,433.1631774902344
66,2,0.7483022809028625,1181.8800048828125,48.0930061340332,1253.6412353515625,104.3240966796875
66,7,0.7245103716850281,1451.7462158203125,445.42144775390625,1582.7132568359375,562.8338623046875
66,7,0.6951008439064026,0.07467269897460938,639.7008056640625,99.50031280517578,823.1383666992188
66,2,0.6328765153884888,455.6672058105469,494.46240234375,611.1932983398438,611.284423828125
66,7,0.48649871349334717,455.3978576660156,493.0987243652344,613.9815673828125,612.4498901367188
66,2,0.4712398648262024,1453.20166015625,445.5531921386719,1583.065185546875,561.95458984375
67,2,0.7424589991569519,680.3367919921875,350.05499267578125,799.843505859375,430.74407958984375
67,2,0.6855234503746033,1187.6502685546875,46.89617156982422,1256.2734375,102.13874816894531
67,7,0.6712371706962585,1449.78125,448.8350830078125,1578.7783203125,564.9093017578125
67,7,0.6480385661125183,0.05413055419921875,631.8901977539062,112.0086441040039,820.2407836914062
67,2,0.5860733389854431,1451.199951171875,447.6960754394531,1577.991943359375,565.4513549804688
67,7,0.5728922486305237,462.0535583496094,493.0000305175781,619.5331420898438,610.662109375
67,2,0.5584535002708435,463.5184020996094,493.8006591796875,617.6614990234375,609.3517456054688
68,2,0.810370922088623,687.0258178710938,349.0185241699219,804.9935913085938,429.3394775390625
68,2,0.7076944708824158,1186.9195556640625,45.011146545410156,1256.8848876953125,99.62317657470703
68,2,0.6897386312484741,470.4144287109375,488.6866149902344,623.3756713867188,607.0269165039062
68,7,0.6722967028617859,1446.80859375,449.3804016113281,1574.7890625,568.1443481445312
68,7,0.6270772218704224,0.0,630.7650146484375,125.12080383300781,813.9647827148438
68,2,0.5251040458679199,1447.553955078125,450.6433410644531,1575.1444091796875,568.3129272460938
68,7,0.445623517036438,471.1184997558594,486.5245056152344,624.2442626953125,607.559326171875
72,2,0.83321213722229,709.9256591796875,337.6784362792969,826.4207153320312,417.46856689453125
72,7,0.6828919649124146,0.18189239501953125,616.1295776367188,170.3114471435547,796.2680053710938
72,2,0.6725186109542847,505.7718200683594,478.01092529296875,659.5569458007812,590.77587890625
72,2,0.6639676094055176,1194.2164306640625,36.31581115722656,1263.92431640625,90.51299285888672
72,7,0.6629778146743774,1432.5615234375,459.29534912109375,1566.2841796875,584.4896850585938
72,2,0.515796959400177,1432.7706298828125,460.02593994140625,1567.0850830078125,585.30615234375
72,7,0.47332438826560974,507.49725341796875,477.1461181640625,658.6940307617188,592.2103271484375
75,2,0.84547358751297,727.5714111328125,328.4272155761719,842.1932373046875,409.226806640625
75,2,0.6865335702896118,1424.2532958984375,471.5013732910156,1559.4434814453125,593.4061279296875
75,2,0.6812314987182617,532.95703125,470.06451416015625,679.0734252929688,583.4844970703125
75,7,0.679190456867218,1423.32568359375,470.2119140625,1560.9957275390625,592.6975708007812
75,7,0.6598029732704163,0.25032806396484375,606.166259765625,204.39266967773438,784.5677490234375
75,2,0.5506711602210999,1198.92822265625,33.45571517944336,1267.5118408203125,86.17279815673828
76,2,0.8118446469306946,733.8675537109375,327.22265625,848.8107299804688,407.679931640625
76,2,0.7851612567901611,1421.252685546875,476.1541442871094,1556.1190185546875,596.2311401367188
76,2,0.7397151589393616,539.828125,465.0391845703125,685.753662109375,580.9837646484375
76,7,0.7319523096084595,0.2955322265625,603.1884765625,215.40174865722656,781.3460083007812
76,7,0.6776187419891357,1421.8580322265625,473.90203857421875,1555.6260986328125,595.9367065429688
76,2,0.5416143536567688,1200.000732421875,32.05024337768555,1270.3873291015625,84.38186645507812
77,2,0.7960760593414307,737.9910278320312,325.40478515625,853.3231201171875,405.6997375488281
77,2,0.7324249148368835,547.6746826171875,462.2778625488281,693.8778076171875,576.5565185546875
77,2,0.7166553139686584,1418.1292724609375,477.5312805175781,1553.15185546875,599.0736694335938
77,7,0.6559975147247314,1418.8038330078125,475.51593017578125,1552.991455078125,598.579833984375
77,7,0.5973186492919922,7.307991027832031,598.00048828125,227.82427978515625,776.5232543945312
77,2,0.4280598759651184,1201.9014892578125,30.003376007080078,1271.416015625,84.04527282714844
77,2,0.3045467138290405,0.1291980743408203,595.6900634765625,27.49786376953125,720.12890625
78,2,0.8412084579467773,743.0784912109375,322.2779846191406,859.246826171875,402.1105041503906
78,7,0.6658761501312256,1416.26953125,477.6810607910156,1551.4449462890625,601.2499389648438
78,7,0.6477424502372742,24.52001953125,595.5179443359375,240.70729064941406,773.9710693359375
78,2,0.5850782990455627,1414.4139404296875,478.56207275390625,1551.33447265625,601.0241088867188
78,2,0.5721860527992249,555.6557006835938,459.12225341796875,701.8798828125,573.6602172851562
78,2,0.5515763163566589,1201.570556640625,31.02014923095703,1272.69580078125,83.44918060302734
78,7,0.49823662638664246,556.2962646484375,458.0936584472656,700.06005859375,574.623046875
78,2,0.48897427320480347,0.0056591033935546875,601.94677734375,38.55095672607422,716.8991088867188
81,2,0.8539014458656311,761.6103515625,315.3265686035156,874.5318603515625,393.3599853515625
81,2,0.7743808031082153,580.2361450195312,451.5443115234375,723.56787109375,561.3220825195312
81,2,0.7202214598655701,1404.436279296875,488.69085693359375,1543.2064208984375,612.1572875976562
81,2,0.6610379219055176,0.0,594.3358154296875,69.5354995727539,706.4276733398438
81,7,0.6441258192062378,1402.453857421875,487.3594665527344,1544.0072021484375,612.7713012695312
81,2,0.5508733987808228,58.341796875,591.2891845703125,270.3455505371094,764.3148193359375
81,2,0.5479823350906372,1211.7547607421875,24.10641860961914,1276.918701171875,77.37870025634766
81,7,0.4222787618637085,57.813262939453125,590.7178955078125,270.4103088378906,763.0046997070312
82,2,0.8360270261764526,767.9059448242188,313.4095458984375,879.6859741210938,393.14447021484375
82,7,0.6965461373329163,1399.6080322265625,491.4041748046875,1541.2540283203125,617.4307250976562
82,2,0.6917839050292969,0.0,589.2599487304688,80.13153076171875,703.593017578125
82,2,0.6808826327323914,1401.41455078125,492.0399169921875,1540.3414306640625,618.185302734375
82,2,0.6436012387275696,588.4566040039062,448.31817626953125,733.1221923828125,559.1953125
82,7,0.5731068253517151,69.47563934326172,587.4295043945312,283.2020568847656,756.5010375976562
82,2,0.45511043071746826,1211.754638671875,22.960464477539062,1279.6490478515625,76.8164291381836
82,2,0.4066745638847351,71.26737213134766,587.9789428710938,282.7882995605469,759.1751098632812
84,2,0.8267785906791687,779.7449340820312,307.75067138671875,886.5507202148438,386.39300537109375
84,2,0.7758715748786926,602.5079956054688,443.0467529296875,744.5656127929688,553.8356323242188
84,2,0.7167225480079651,1395.9766845703125,498.1995849609375,1534.5238037109375,624.6699829101562
84,7,0.6685245037078857,94.89727783203125,582.11279296875,303.1737976074219,749.0103149414062
84,7,0.6662905216217041,1394.9144287109375,497.1211853027344,1535.9049072265625,623.2654418945312
84,2,0.6463049650192261,0.12965011596679688,582.6145629882812,104.15167236328125,697.8150024414062
84,2,0.39924973249435425,1212.2745361328125,19.511192321777344,1282.529296875,73.151123046875
85,2,0.8060133457183838,783.21240234375,305.415283203125,893.9439697265625,384.1926574707031
85,2,0.7610743641853333,0.0,579.267333984375,119.48828887939453,697.6329345703125
85,7,0.695277750492096,1391.4100341796875,499.1856994628906,1532.4228515625,628.4015502929688
85,7,0.6758698225021362,105.32791900634766,578.944580078125,311.82684326171875,745.7781982421875
85,2,0.6649619936943054,610.2536010742188,439.7132263183594,750.4193725585938,552.0674438476562
85,2,0.6171804666519165,1392.5806884765625,500.06634521484375,1531.7291259765625,628.2053833007812
85,7,0.44051194190979004,608.7052001953125,439.4456481933594,751.3380126953125,550.3701171875
85,2,0.32806286215782166,1213.759033203125,13.442459106445312,1285.3963623046875,68.82561492919922
87,2,0.8099977970123291,793.415771484375,302.9014892578125,902.578857421875,379.20648193359375
87,2,0.7636390924453735,0.0,577.4389038085938,145.56307983398438,693.6079711914062
87,2,0.7572725415229797,626.189453125,433.0106506347656,765.4277954101562,541.2918701171875
87,7,0.6528411507606506,131.0071563720703,572.6138305664062,336.85357666015625,738.11865234375
87,7,0.630742073059082,1383.584228515625,502.03729248046875,1529.5096435546875,634.4578857421875
87,2,0.5147840976715088,1382.744873046875,503.11614990234375,1529.1182861328125,635.2401123046875
87,2,0.40198850631713867,1220.5262451171875,5.456099510192871,1288.5418701171875,67.52298736572266
88,2,0.8403525948524475,0.0,574.1364135742188,148.01023864746094,687.3935546875
88,2,0.8056542873382568,798.8508911132812,300.7184143066406,909.5044555664062,375.60711669921875
88,2,0.7100866436958313,633.1223754882812,432.34515380859375,769.9833984375,538.4196166992188
88,7,0.6263234615325928,143.5077667236328,570.0428466796875,344.24664306640625,734.7936401367188
88,7,0.6162717342376709,1380.225341796875,506.0453796386719,1525.7081298828125,638.1273803710938
88,2,0.5750715732574463,1381.2384033203125,507.31256103515625,1525.054931640625,637.8001098632812
88,2,0.48528963327407837,1221.2413330078125,7.330684661865234,1290.756591796875,65.45767211914062
89,2,0.8609034419059753,0.0,572.8040771484375,159.08497619628906,685.0499267578125
89,2,0.8090797066688538,804.0408325195312,298.8348388671875,913.3950805664062,370.93060302734375
89,2,0.7647255659103394,638.9672241210938,428.8887939453125,779.6189575195312,537.147216796875
89,7,0.607776403427124,1376.3583984375,508.0950622558594,1522.00341796875,640.9655151367188
89,7,0.5933576822280884,152.7587127685547,568.1541137695312,354.1509094238281,731.5428466796875
89,2,0.560750424861908,1378.53955078125,508.859375,1519.6212158203125,642.0535888671875
89,2,0.5451242923736572,1224.591552734375,7.322479248046875,1290.12646484375,63.79316711425781
89,2,0.3685554265975952,152.17294311523438,568.6939697265625,355.8971862792969,731.8856201171875
90,2,0.8361989855766296,808.4899291992188,296.39312744140625,918.3292236328125,369.4297790527344
90,2,0.8281601667404175,4.059963226318359,570.1228637695312,171.64285278320312,682.8845825195312
90,2,0.7559786438941956,647.1053466796875,427.078857421875,787.7529296875,535.0120239257812
90,2,0.7049748301506042,1374.1739501953125,513.93701171875,1517.1339111328125,645.2999877929688
90,7,0.6927897334098816,165.1974334716797,565.392822265625,363.44158935546875,727.43017578125
90,7,0.6145380735397339,1372.947265625,513.69580078125,1519.225830078125,645.333984375
90,2,0.44788336753845215,1224.904296875,5.250397682189941,1291.74365234375,63.490299224853516
92,2,0.8490861058235168,820.385009765625,288.6791687011719,929.79638671875,364.38494873046875
92,7,0.7483711838722229,189.1101837158203,560.0202026367188,383.8197326660156,720.1541137695312
92,2,0.6863912343978882,1366.624755859375,521.2169189453125,1514.0001220703125,651.50634765625
92,2,0.6723236441612244,661.1497802734375,422.5913391113281,797.75341796875,528.0584106445312
92,2,0.6675378680229187,17.10358428955078,565.0992431640625,183.62411499023438,679.6708984375
92,7,0.5783793926239014,1367.48486328125,520.7296752929688,1514.854248046875,651.8245849609375
92,2,0.3355923891067505,1225.8564453125,3.188778877258301,1293.5205078125,60.66899871826172
92,2,0.31978940963745117,1804.480224609375,28.695940017700195,1870.8193359375,96.36312103271484
95,2,0.8484382033348083,834.5776977539062,281.5409851074219,941.135009765625,358.1946105957031
95,7,0.7408459186553955,221.9432373046875,547.6038818359375,412.77337646484375,707.3663330078125
95,2,0.7091334462165833,41.4503173828125,555.0374145507812,209.005615234375,669.77001953125
95,2,0.6875298023223877,1356.4205322265625,527.4047241210938,1506.9566650390625,662.3038330078125
95,2,0.6164600253105164,683.6034545898438,411.8934631347656,815.6170043945312,518.5823364257812
95,7,0.5382146239280701,1355.732421875,525.70263671875,1505.0430908203125,662.61572265625
95,2,0.3250219225883484,1800.049072265625,31.79534912109375,1869.361083984375,101.00493621826172
95,2,0.2896294891834259,1231.807373046875,2.4052047729492188,1298.9268798828125,54.13935470581055
96,2,0.824509859085083,839.419921875,279.1348571777344,944.4673461914062,355.0498352050781
96,2,0.7233209609985352,1354.7607421875,531.2996215820312,1500.2889404296875,667.3402099609375
96,7,0.7150760889053345,232.97772216796875,542.855224609375,424.2286376953125,705.298095703125
96,2,0.6562548875808716,52.01172637939453,553.1072387695312,218.2210235595703,665.69189453125
96,2,0.6103780269622803,689.146240234375,408.0797424316406,824.0977172851562,515.4848022460938
96,7,0.5400279760360718,1353.6185302734375,529.3369140625,1501.41796875,666.49462890625
96,2,0.4717104434967041,1799.9344482421875,32.518455505371094,1868.2569580078125,103.42108154296875
96,2,0.3800868093967438,1229.7540283203125,0.8326234817504883,1297.4605712890625,54.15319061279297
99,2,0.8491318821907043,853.638427734375,272.796875,960.6119384765625,345.48773193359375
99,2,0.7957231998443604,72.6536636352539,547.7722778320312,238.3714599609375,657.5238647460938
99,2,0.745660126209259,1343.2694091796875,540.2872314453125,1492.7794189453125,679.8517456054688
99,7,0.7426324486732483,264.55328369140625,537.1919555664062,449.6134033203125,693.7476806640625
99,2,0.7122628092765808,709.158935546875,401.3277282714844,845.7008666992188,506.4137878417969
99,7,0.5119785070419312,1343.167236328125,540.5317993164062,1493.5374755859375,676.18896484375
99,7,0.3992193639278412,710.1019287109375,400.8793029785156,846.6839599609375,506.6069641113281
99,2,0.34129461646080017,1794.2344970703125,38.96713638305664,1866.0513916015625,109.02543640136719
99,2,0.3377367854118347,1237.848388671875,3.481779098510742,1300.7205810546875,48.122764587402344
103,2,0.786838948726654,109.89179992675781,534.5185546875,268.0379638671875,646.6541748046875
103,2,0.7817546129226685,735.4762573242188,390.4144592285156,862.6527099609375,492.4477844238281
103,2,0.7312768697738647,871.372802734375,261.14678955078125,979.005126953125,335.3613586425781
103,7,0.6941222548484802,304.02117919921875,524.7111206054688,487.55364990234375,680.2940063476562
103,7,0.6909865140914917,1327.37255859375,552.316650390625,1483.944580078125,692.5671997070312
103,2,0.5769591331481934,1327.5145263671875,553.9126586914062,1482.544189453125,694.04345703125
103,2,0.42533931136131287,1791.7489013671875,46.070228576660156,1861.10009765625,113.74024200439453
105,2,0.736996591091156,882.3348999023438,258.26806640625,979.9451293945312,328.9291076660156
105,7,0.7331343293190002,321.6822814941406,519.126953125,506.3370056152344,671.135986328125
105,2,0.7250658273696899,749.1148681640625,383.8279724121094,875.9007568359375,488.8482971191406
105,2,0.6903255581855774,123.9697265625,533.834228515625,283.8970642089844,641.12158203125
105,2,0.6288729906082153,1323.328857421875,557.9769287109375,1471.524658203125,699.1104125976562
105,7,0.5448988080024719,1323.6636962890625,558.2474365234375,1474.8450927734375,699.341552734375
105,2,0.4050893783569336,1789.9031982421875,47.86118698120117,1858.0667724609375,115.4366683959961
106,2,0.8103104829788208,755.403564453125,383.2295837402344,882.1159057617188,483.5810852050781
106,7,0.7743502855300903,334.9760437011719,516.5736694335938,515.6513671875,667.3379516601562
106,2,0.7099268436431885,885.8029174804688,256.6884460449219,988.4031372070312,327.18707275390625
106,2,0.7067869901657104,134.03086853027344,528.7796630859375,288.26416015625,636.4586791992188
106,7,0.6268181204795837,1319.86572265625,563.3924560546875,1471.1815185546875,704.6239013671875
106,2,0.6000058650970459,1318.4027099609375,562.873046875,1469.249267578125,705.420654296875
106,2,0.5035940408706665,1788.935791015625,47.13064193725586,1858.0126953125,117.90621185302734
107,2,0.8555943369865417,761.2136840820312,380.2654724121094,890.16650390625,482.1438903808594
107,2,0.7993800640106201,888.5242309570312,253.40670776367188,994.2116088867188,322.9192199707031
107,2,0.7822532057762146,143.1500701904297,527.5157470703125,297.8315124511719,634.6688842773438
107,7,0.6699792742729187,342.4391784667969,513.0928344726562,525.07763671875,664.2469482421875
107,2,0.5740063190460205,1313.82568359375,567.7835693359375,1467.8909912109375,708.1068115234375
107,2,0.5195209383964539,1786.489013671875,47.456844329833984,1858.155029296875,121.24335479736328
107,7,0.5070192217826843,1313.0072021484375,566.009765625,1468.781982421875,707.775146484375
108,2,0.8099644780158997,149.64527893066406,526.5640869140625,303.056396484375,633.3427734375
108,2,0.7968493700027466,892.6160888671875,249.46018981933594,995.9937744140625,321.2921447753906
108,2,0.7917158603668213,766.4993896484375,376.65087890625,894.5432739257812,479.62957763671875
108,7,0.721442461013794,353.84051513671875,508.6739501953125,533.5042114257812,659.7322998046875
108,2,0.5848221182823181,1785.6552734375,48.85721969604492,1858.85791015625,122.50296783447266
108,7,0.5654663443565369,1307.0504150390625,566.98486328125,1466.054443359375,712.5260620117188
108,7,0.493648886680603,768.1893310546875,376.71270751953125,894.574951171875,479.022705078125
108,2,0.41740283370018005,1309.950927734375,570.6170043945312,1465.865966796875,712.1722412109375
109,2,0.8677861094474792,157.23329162597656,525.2077026367188,309.1467590332031,630.357666015625
109,2,0.8027899861335754,900.1787109375,247.33868408203125,1002.29443359375,320.73095703125
109,2,0.8005832433700562,773.4442749023438,373.2045593261719,900.2349243164062,477.1868591308594
109,7,0.7502282857894897,362.1536865234375,506.3641052246094,540.0294799804688,656.5550537109375
109,7,0.5801537036895752,1303.7982177734375,569.8771362304688,1462.9476318359375,715.125
109,2,0.5652125477790833,1307.280517578125,573.8010864257812,1464.2286376953125,715.2423706054688
112,2,0.8006923794746399,914.0985717773438,239.97715759277344,1010.7568359375,312.41595458984375
112,2,0.7426185011863708,180.09230041503906,514.6366577148438,333.88299560546875,624.0706787109375
112,7,0.7327733039855957,388.5496520996094,498.1816711425781,566.9754028320312,646.4195556640625
112,2,0.6487700939178467,790.7647705078125,365.59588623046875,916.1275634765625,465.95489501953125
112,2,0.6281801462173462,1297.8416748046875,582.1649169921875,1455.2274169921875,725.2498168945312
112,7,0.4889402389526367,1296.57763671875,580.6611328125,1455.5743408203125,726.5189208984375
115,2,0.784613847732544,923.6583251953125,232.4590301513672,1021.412841796875,302.51910400390625
115,2,0.7634317278862,810.999267578125,358.56573486328125,934.6165161132812,457.1681213378906
115,2,0.7368331551551819,204.45201110839844,507.3262023925781,355.89208984375,611.65380859375
115,7,0.6831552386283875,418.01220703125,491.7889709472656,591.0732421875,637.66357421875
115,7,0.5967648029327393,1284.8062744140625,589.8470458984375,1444.9078369140625,739.4458618164062
115,7,0.5057376027107239,811.577880859375,358.05413818359375,935.5474243164062,456.64837646484375
115,2,0.49084511399269104,1284.368408203125,589.4559326171875,1444.867919921875,739.5167236328125
115,2,0.37808772921562195,1776.9913330078125,59.407447814941406,1851.6793212890625,135.96900939941406
116,2,0.8462783694267273,929.82568359375,228.98455810546875,1027.4908447265625,299.0552673339844
116,2,0.7547551393508911,209.30177307128906,504.8567810058594,360.00750732421875,610.4300537109375
116,2,0.7512403130531311,816.1809692382812,354.97998046875,941.0751953125,455.1859130859375
116,7,0.7343205213546753,427.91033935546875,487.9393615722656,601.3137817382812,634.123046875
116,7,0.6521214246749878,1277.521728515625,592.2213745117188,1444.1707763671875,744.3199462890625
116,7,0.5003344416618347,817.9400024414062,354.2366027832031,941.8562622070312,454.43621826171875
116,2,0.3933016061782837,1776.774169921875,62.925933837890625,1850.1060791015625,139.3337860107422
116,2,0.36417269706726074,1279.4337158203125,594.9342651367188,1443.7445068359375,743.1160278320312
116,7,0.3293474018573761,1775.710693359375,61.38658905029297,1850.4140625,138.97454833984375
117,2,0.8913496136665344,930.6577758789062,227.10797119140625,1029.8990478515625,298.210693359375
117,2,0.8337856531143188,218.90634155273438,503.2528381347656,367.8262023925781,608.5424194335938
117,2,0.7628071904182434,823.0200805664062,351.87957763671875,946.3200073242188,452.1756896972656
117,7,0.7533525824546814,435.53228759765625,485.2722473144531,609.8582153320312,632.1865234375
117,7,0.6809849143028259,1276.0216064453125,596.657470703125,1440.0831298828125,746.9993286132812
117,7,0.4833018183708191,823.2681884765625,352.57525634765625,945.9012451171875,452.40985107421875
117,7,0.46056634187698364,1774.2529296875,62.74541473388672,1851.236328125,140.81649780273438
117,2,0.4343893229961395,1276.0445556640625,598.4315795898438,1440.2806396484375,747.00732421875
117,2,0.3967856764793396,1775.255615234375,64.32305145263672,1851.0843505859375,140.81494140625
118,2,0.8605362176895142,935.0123291015625,223.41700744628906,1035.0933837890625,297.3113708496094
118,2,0.7984727621078491,227.31069946289062,501.8731384277344,374.3360595703125,604.2246704101562
118,7,0.6897166967391968,443.8072814941406,482.4178161621094,618.0472412109375,629.3009643554688
118,7,0.6573548913002014,1274.05517578125,599.8563232421875,1438.60791015625,750.6190795898438
118,2,0.6394110321998596,829.1017456054688,350.1072998046875,950.2838745117188,445.52996826171875
118,2,0.4922889769077301,1772.7359619140625,66.08477783203125,1850.0299072265625,141.4452362060547
118,7,0.3573717176914215,829.706787109375,349.5414123535156,951.2278442382812,448.58526611328125
118,2,0.25475066900253296,1274.3525390625,601.6426391601562,1438.6640625,749.7387084960938
122,2,0.7957810163497925,254.0877685546875,492.32025146484375,403.580322265625,596.117431640625
122,2,0.7385206818580627,953.1835327148438,215.76596069335938,1049.73095703125,284.2698669433594
122,2,0.6818916201591492,851.259521484375,339.2254333496094,970.951171875,435.7757568359375
122,7,0.6525387167930603,1256.6279296875,613.6569213867188,1423.4461669921875,768.1834716796875
122,7,0.6296584010124207,480.56964111328125,473.78240966796875,647.5455322265625,612.6096801757812
122,2,0.48874232172966003,1765.339599609375,69.95938110351562,1843.178466796875,151.8816375732422
123,2,0.8472486734390259,857.8928833007812,336.79449462890625,976.6873168945312,433.9126281738281
123,2,0.7595260143280029,262.3489685058594,490.3585510253906,408.4123840332031,592.5901489257812
123,2,0.7267494797706604,957.267333984375,211.8391571044922,1051.828857421875,283.0007019042969
123,7,0.6819997429847717,488.7550048828125,470.3994140625,653.94873046875,609.9158935546875
123,7,0.6265206933021545,1254.0054931640625,616.1376342773438,1423.2994384765625,770.9296875
123,2,0.3668220341205597,1761.985595703125,71.37238311767578,1841.1904296875,151.97695922851562
123,7,0.3178427517414093,1761.676513671875,71.83067321777344,1841.2420654296875,152.05645751953125
123,2,0.2659628093242645,1806.416015625,20.39432144165039,1863.32958984375,68.59037780761719
124,2,0.8064140677452087,862.8158569335938,334.7251281738281,983.7800903320312,431.08355712890625
124,2,0.7029464244842529,269.84124755859375,486.4189453125,414.7872009277344,587.1715087890625
124,2,0.6841908097267151,960.6231079101562,210.42196655273438,1055.0223388671875,279.8498229980469
124,7,0.6657551527023315,496.77630615234375,467.3233337402344,662.33203125,607.1430053710938
124,7,0.6483392715454102,1251.1658935546875,619.1250610351562,1421.1787109375,775.1937255859375
124,7,0.480716347694397,864.135009765625,333.88763427734375,983.2308349609375,430.28497314453125
124,2,0.3465770184993744,1761.1641845703125,73.2165298461914,1843.3232421875,154.7353057861328
127,2,0.8086643815040588,291.14239501953125,480.8994140625,433.15570068359375,581.1123046875
127,2,0.7731338143348694,880.2733154296875,325.1811218261719,997.2447509765625,418.5178527832031
127,2,0.7246488928794861,970.7433471679688,204.8441619873047,1064.29150390625,273.4363708496094
127,7,0.6317421793937683,521.033935546875,456.2076416015625,682.844970703125,596.0546875
127,2,0.5308635830879211,1762.482421875,80.56045532226562,1840.5322265625,158.13125610351562
127,7,0.5195676684379578,1238.17822265625,629.8658447265625,1409.4578857421875,790.0311279296875
127,2,0.316607803106308,1238.072021484375,631.4348754882812,1409.2371826171875,788.2959594726562
128,2,0.840994656085968,299.1000671386719,477.6089172363281,438.8181457519531,578.7171630859375
128,2,0.795968770980835,974.1211547851562,201.70770263671875,1069.273193359375,270.8587951660156
128,2,0.6569766402244568,1758.8016357421875,82.5194320678711,1838.5052490234375,162.04579162597656
128,7,0.6568669676780701,530.5014038085938,454.2851257324219,692.2886352539062,591.98681640625
128,2,0.5999923944473267,885.6908569335938,324.27154541015625,1004.1879272460938,417.74615478515625
128,7,0.5598907470703125,1233.968017578125,636.7608032226562,1406.54638671875,794.337890625
128,7,0.4841359555721283,885.741943359375,323.1631164550781,1002.3731689453125,418.77337646484375
128,2,0.4111633896827698,1235.531982421875,636.4630737304688,1406.860107421875,794.21728515625
129,2,0.8429908752441406,302.86663818359375,475.76361083984375,447.2054443359375,576.7528686523438
129,2,0.7787978649139404,978.4660034179688,198.43295288085938,1074.6181640625,268.7280578613281
129,2,0.6916449069976807,889.0823364257812,321.2449951171875,1005.19482421875,415.9664611816406
129,7,0.6509154438972473,1228.9669189453125,640.6278076171875,1403.671875,796.777587890625
129,2,0.5825688242912292,1756.4931640625,85.21776580810547,1838.6273193359375,165.3349609375
129,7,0.5763149857521057,538.695068359375,450.6475524902344,701.1861572265625,588.8368530273438
129,2,0.47950148582458496,538.7858276367188,449.29119873046875,700.7940673828125,588.8794555664062
129,2,0.3211961090564728,1231.0810546875,639.9752197265625,1403.4188232421875,798.552978515625
131,2,0.8373895287513733,987.3746337890625,193.07281494140625,1078.1824951171875,263.2544860839844
131,2,0.7740013003349304,317.0618591308594,472.2565612792969,460.4186096191406,571.0961303710938
131,2,0.7356519103050232,900.8208618164062,315.3270263671875,1018.4130249023438,409.18707275390625
131,7,0.6647355556488037,554.2315063476562,443.5887451171875,715.6798095703125,585.5650634765625
131,7,0.6342065334320068,1223.5718994140625,644.7110595703125,1397.400146484375,805.4782104492188
131,2,0.49881500005722046,1756.8182373046875,87.69156646728516,1836.1314697265625,169.73240661621094
131,2,0.302021861076355,1221.8726806640625,645.4010009765625,1398.0802001953125,804.5562744140625
132,2,0.8652860522270203,988.2218627929688,192.069580078125,1082.3779296875,261.5715637207031
132,2,0.8546830415725708,907.2601318359375,312.39447021484375,1025.9093017578125,407.8759460449219
132,2,0.7716159820556641,324.48809814453125,467.725830078125,465.8738098144531,568.4204711914062
132,7,0.6099974513053894,564.2725219726562,441.65826416015625,722.9564208984375,582.50244140625
132,2,0.5784676671028137,1756.8431396484375,87.8488998413086,1836.1029052734375,172.22329711914062
132,7,0.5445039868354797,1216.8018798828125,649.2811889648438,1394.0238037109375,809.6797485351562
132,2,0.40010249614715576,1217.227294921875,649.9937133789062,1393.78662109375,808.5714721679688
132,2,0.3745068907737732,563.4246826171875,442.0975341796875,721.8473510742188,579.5381469726562
133,2,0.8991536498069763,912.7579345703125,310.46771240234375,1030.090087890625,406.1009521484375
133,2,0.8514333367347717,989.6455078125,189.51480102539062,1084.521240234375,256.56903076171875
133,2,0.7923170924186707,329.7793884277344,466.3362121582031,475.5289611816406,563.5521850585938
133,7,0.6304244995117188,568.0833129882812,442.1593322753906,727.5366821289062,578.0316162109375
133,2,0.5512661337852478,1756.0916748046875,89.04034423828125,1834.7523193359375,173.8560028076172
133,7,0.5408077239990234,1213.9901123046875,652.8257446289062,1392.8511962890625,814.4884643554688
133,2,0.39469343423843384,566.4526977539062,442.5812072753906,728.205078125,575.9641723632812
133,2,0.28266704082489014,1214.65576171875,652.0446166992188,1391.832275390625,815.7775268554688
134,2,0.8488092422485352,917.5878295898438,306.1718444824219,1034.1728515625,399.6495666503906
134,2,0.8268728852272034,994.577880859375,187.0191192626953,1087.4761962890625,255.6356964111328
134,7,0.6803227066993713,577.9974975585938,439.4736328125,733.995361328125,574.0208129882812
134,2,0.6704670190811157,339.6255798339844,463.8470764160156,478.0760192871094,561.0930786132812
134,2,0.5954257249832153,1755.3568115234375,89.94644165039062,1833.0689697265625,175.29006958007812
134,7,0.5289991497993469,1210.85888671875,656.7676391601562,1391.70263671875,818.3551025390625
136,2,0.8662835359573364,349.8745422363281,461.01763916015625,490.1997985839844,557.127197265625
136,2,0.8309920430183411,1004.1898193359375,180.4684295654297,1097.603759765625,249.93287658691406
136,2,0.8197542428970337,928.7353515625,301.8298645019531,1044.170654296875,394.6724853515625
136,7,0.5763239860534668,1203.8507080078125,664.3284912109375,1385.226318359375,826.2354736328125
136,2,0.5678007006645203,1753.32861328125,97.70265197753906,1831.691162109375,179.61502075195312
136,7,0.46891483664512634,593.8135986328125,433.2023010253906,747.1787109375,565.5374755859375
136,2,0.40356162190437317,592.5648803710938,435.1330261230469,746.31005859375,564.57666015625
136,2,0.29042357206344604,1796.66748046875,35.1873893737793,1860.439453125,88.85518646240234
138,2,0.8461498618125916,362.808837890625,456.80474853515625,501.7376403808594,552.3945922851562
138,2,0.8448694348335266,1007.7652587890625,176.51133728027344,1101.6102294921875,247.86227416992188
138,2,0.7438638806343079,1752.301025390625,100.10627746582031,1830.91259765625,183.95114135742188
138,2,0.7198346853256226,939.214599609375,297.3818054199219,1053.1739501953125,391.3431091308594
138,7,0.6367235779762268,607.7151489257812,428.304931640625,765.3989868164062,559.6964721679688
138,7,0.6102441549301147,1196.2508544921875,667.44970703125,1373.83935546875,835.65625
138,7,0.45654261112213135,939.2398681640625,297.6252136230469,1053.457763671875,390.9408874511719
138,2,0.39316442608833313,1793.8157958984375,37.67914581298828,1860.1402587890625,95.4931640625
141,2,0.8081400990486145,386.53839111328125,449.410400390625,524.2716674804688,541.4445190429688
141,2,0.7746117115020752,956.3408203125,290.960205078125,1067.0621337890625,382.2369689941406
141,2,0.7575641870498657,1022.5896606445312,170.0006103515625,1110.090087890625,237.10061645507812
141,7,0.7284592986106873,633.2007446289062,419.5077209472656,783.9472045898438,550.1175537109375
141,7,0.6152852773666382,1183.2103271484375,676.9843139648438,1368.3043212890625,848.5841674804688
141,2,0.301078200340271,1746.9005126953125,104.9897689819336,1829.0767822265625,191.48974609375
141,7,0.27623477578163147,1746.91845703125,103.89921569824219,1829.23095703125,190.71702575683594
143,2,0.7719779014587402,1028.0177001953125,165.55201721191406,1114.922119140625,230.5048370361328
143,2,0.7539458274841309,965.0645141601562,285.1566467285156,1076.2969970703125,372.63128662109375
143,7,0.6921101808547974,646.352783203125,414.8587646484375,796.2460327148438,542.37890625
143,2,0.6814161539077759,398.0085754394531,443.0069274902344,534.0418090820312,537.905517578125
143,7,0.5861735343933105,1175.6112060546875,688.9847412109375,1361.6807861328125,858.6607055664062
143,2,0.44153207540512085,1174.8875732421875,688.592529296875,1363.7255859375,858.1348266601562
143,2,0.25241002440452576,1742.5865478515625,111.73475646972656,1824.3695068359375,194.15858459472656
144,2,0.7514470219612122,971.1322631835938,280.71551513671875,1080.14111328125,370.74951171875
144,2,0.7345132231712341,405.4205017089844,442.31634521484375,540.6204223632812,536.1625366210938
144,2,0.6869478225708008,1028.587646484375,162.48033142089844,1118.0665283203125,229.02488708496094
144,7,0.6788367629051208,652.6712646484375,407.96282958984375,803.8154907226562,540.4683837890625
144,7,0.5175362825393677,1173.6778564453125,690.9556274414062,1360.385986328125,863.5526733398438
144,2,0.46735453605651855,1172.9652099609375,691.0724487304688,1361.5966796875,864.3239135742188
144,2,0.323037713766098,1740.6995849609375,112.0257339477539,1822.306396484375,196.12185668945312
144,7,0.28995656967163086,1739.7608642578125,111.79021453857422,1822.5457763671875,196.21270751953125
146,2,0.7745215892791748,1035.4923095703125,156.2908172607422,1125.907958984375,225.3775177001953
146,2,0.7118635773658752,418.8082580566406,438.8625183105469,550.9383544921875,531.4585571289062
146,7,0.673676609992981,665.9940185546875,404.0274353027344,818.3531494140625,536.6322021484375
146,7,0.5389208197593689,1165.1776123046875,697.3059692382812,1353.8221435546875,873.6185913085938
146,7,0.37134671211242676,982.440673828125,278.2172546386719,1091.5126953125,368.29541015625
146,2,0.3683059513568878,983.7667236328125,278.4830322265625,1091.20458984375,367.2759094238281
149,2,0.7953470945358276,438.1798400878906,431.01397705078125,569.8734130859375,524.5537719726562
149,2,0.737351655960083,1048.294921875,149.90890502929688,1133.5869140625,215.72561645507812
149,7,0.5935755372047424,687.8827514648438,396.2127685546875,837.4777221679688,525.2503662109375
149,2,0.556489884853363,995.6394653320312,269.0006408691406,1105.33935546875,357.4217224121094
149,7,0.5416275262832642,1152.4696044921875,711.484130859375,1346.12158203125,888.457763671875
149,2,0.4454219341278076,1733.56396484375,121.93347930908203,1817.9049072265625,202.6310272216797
149,2,0.4063813388347626,1152.2515869140625,712.0510864257812,1348.5406494140625,889.2913208007812
149,7,0.33027002215385437,995.016357421875,269.8143310546875,1104.926513671875,357.74615478515625
150,2,0.749448835849762,1049.3204345703125,148.68910217285156,1136.501708984375,213.7342987060547
150,2,0.7131815552711487,443.91851806640625,429.3630065917969,574.7532348632812,521.9985961914062
150,2,0.6279956102371216,1002.90234375,266.02490234375,1110.46044921875,355.9409484863281
150,7,0.6247830390930176,696.4022827148438,395.1233215332031,842.9690551757812,521.5542602539062
150,7,0.5811119675636292,1149.843017578125,715.28369140625,1345.7532958984375,893.3278198242188
150,2,0.44589322805404663,1732.90283203125,125.81645965576172,1815.996826171875,206.07254028320312
150,7,0.42653781175613403,1733.178955078125,125.05245971679688,1816.4326171875,205.0916290283203
150,7,0.41282132267951965,445.1040344238281,429.2771301269531,576.5338134765625,521.9359741210938
150,2,0.3799790143966675,1150.150390625,715.4161376953125,1348.4781494140625,894.072509765625
152,2,0.7999687790870667,456.90399169921875,425.0882263183594,589.0072631835938,514.4994506835938
152,2,0.763681948184967,1056.2420654296875,143.99021911621094,1144.041748046875,207.76695251464844
152,7,0.6854965686798096,708.9988403320312,393.613525390625,858.6286010742188,514.9053955078125
152,2,0.6519880890846252,1009.702880859375,260.2035217285156,1120.5133056640625,348.0542907714844
152,7,0.5300184488296509,1140.1934814453125,720.5473022460938,1340.017578125,900.5161743164062
152,2,0.37855949997901917,1731.9599609375,123.83134460449219,1815.36669921875,209.20042419433594
152,7,0.354194313287735,1732.4794921875,122.85223388671875,1815.60498046875,208.6095428466797
155,2,0.8000287413597107,1060.958984375,136.16098022460938,1152.79150390625,202.7655029296875
155,2,0.6616706848144531,474.2076416015625,416.139892578125,607.306640625,509.69195556640625
155,2,0.6521207094192505,1729.571044921875,134.67042541503906,1811.03466796875,219.0269317626953
155,7,0.617050051689148,1130.2803955078125,729.1022338867188,1330.4996337890625,915.6453247070312
155,2,0.5762849450111389,1026.552734375,251.7946014404297,1135.30126953125,341.3585205078125
155,7,0.5695642828941345,732.1611938476562,382.40130615234375,872.8541259765625,505.2637939453125
155,7,0.4993903338909149,1026.63134765625,254.4945068359375,1134.896484375,341.9893798828125
155,2,0.36122411489486694,732.4114379882812,385.40478515625,872.607421875,505.23028564453125
157,2,0.8813750743865967,1070.8355712890625,131.97006225585938,1157.7066650390625,197.2730255126953
157,2,0.7563568353652954,488.6155700683594,410.7008056640625,620.1026611328125,501.8634338378906
157,7,0.6053225994110107,1123.42578125,736.3002319335938,1325.0054931640625,925.2280883789062
157,2,0.5638660192489624,1036.0494384765625,247.37754821777344,1146.1409912109375,333.9763488769531
157,7,0.5546254515647888,744.8035278320312,379.1184997558594,886.68701171875,498.8916320800781
157,2,0.534251868724823,1722.777587890625,138.6451416015625,1811.7100830078125,223.06216430664062
157,7,0.40553078055381775,1034.976318359375,246.89959716796875,1145.1717529296875,333.2186584472656
159,2,0.8261422514915466,1076.838623046875,126.41007232666016,1160.9180908203125,192.8946533203125
159,2,0.8252065777778625,1046.07080078125,241.4351806640625,1149.4404296875,324.5245056152344
159,2,0.8189845085144043,500.3665466308594,405.0453186035156,629.327880859375,500.5578918457031
159,7,0.6937450170516968,757.6586303710938,372.92083740234375,900.23974609375,492.7596130371094
159,7,0.6061604022979736,1116.13330078125,740.6707763671875,1323.087890625,934.6864013671875
159,2,0.5727488398551941,1722.4896240234375,141.63662719726562,1807.2418212890625,227.95570373535156
159,2,0.3891090452671051,1116.2369384765625,741.75830078125,1323.298828125,935.660400390625
160,2,0.808469831943512,1080.4151611328125,125.43546295166016,1165.7423095703125,190.0600128173828
160,2,0.7855033874511719,508.4731750488281,404.3758850097656,637.55078125,493.3396911621094
160,2,0.7428345680236816,1049.1456298828125,238.68438720703125,1152.8472900390625,322.9056091308594
160,7,0.6530698537826538,764.6412963867188,371.08319091796875,906.510498046875,490.657470703125
160,7,0.6350764632225037,1112.9971923828125,747.2847290039062,1320.571044921875,939.6719970703125
160,2,0.5018631815910339,1723.430419921875,144.0423126220703,1808.842529296875,230.94224548339844
160,7,0.32909414172172546,1723.3055419921875,144.5873260498047,1806.4581298828125,231.2635040283203
160,7,0.29877063632011414,1768.4876708984375,68.14059448242188,1845.0528564453125,131.5583953857422
160,2,0.26019594073295593,1112.22998046875,746.1522216796875,1320.7969970703125,941.344482421875
163,2,0.8221867084503174,1084.480224609375,118.8336410522461,1172.9769287109375,183.49636840820312
163,2,0.8086246252059937,527.9624633789062,399.28436279296875,654.948486328125,488.19525146484375
163,2,0.6290220618247986,1719.8485107421875,147.37925720214844,1808.58837890625,236.4536590576172
163,7,0.5308417677879333,781.9306640625,360.9271545410156,921.30029296875,484.1833190917969
163,2,0.43408292531967163,1099.981689453125,761.2566528320312,1314.0799560546875,952.18017578125
163,2,0.41863465309143066,1061.720947265625,228.35787963867188,1169.2291259765625,315.0685119628906
163,7,0.41747772693634033,1101.603515625,759.3306884765625,1312.0001220703125,952.8321533203125
163,7,0.35897374153137207,1718.0025634765625,148.16592407226562,1804.6876220703125,237.21945190429688
163,7,0.286950945854187,1767.993896484375,72.56597900390625,1844.278564453125,137.9439697265625
163,2,0.2610783576965332,1769.073486328125,72.84681701660156,1844.199462890625,138.49118041992188
164,2,0.7748008966445923,1090.8414306640625,118.15752410888672,1176.8145751953125,180.41831970214844
164,2,0.7324235439300537,533.6372680664062,395.68304443359375,661.9352416992188,488.010498046875
164,2,0.5481584072113037,1065.3575439453125,227.36294555664062,1172.150390625,312.2673034667969
164,7,0.47924649715423584,790.4236450195312,357.2805480957031,926.8112182617188,480.0752868652344
164,2,0.47860944271087646,1099.5831298828125,762.4324951171875,1310.00390625,962.3529052734375
164,2,0.464110404253006,789.2556762695312,359.1226806640625,926.3793334960938,478.3174743652344
164,7,0.43230852484703064,1715.1522216796875,147.06539916992188,1805.9014892578125,240.37815856933594
164,2,0.2542940378189087,1716.4683837890625,148.1784210205078,1808.2760009765625,240.33224487304688
166,2,0.7815768718719482,544.9840698242188,393.536865234375,670.2567749023438,481.529296875
166,2,0.6852369904518127,1095.5281982421875,113.33150482177734,1181.4661865234375,177.18429565429688
166,2,0.6346983909606934,1077.6260986328125,221.43626403808594,1180.0322265625,308.5574645996094
166,7,0.6216843128204346,804.6024169921875,351.4380798339844,942.5496826171875,472.6661682128906
166,7,0.5349993705749512,1092.948974609375,768.6852416992188,1306.35693359375,972.9190673828125
166,7,0.42225077748298645,1076.291015625,223.01336669921875,1179.519287109375,307.2834777832031
166,7,0.3211505711078644,1759.496826171875,76.14642333984375,1840.5872802734375,147.95672607421875
166,7,0.32012948393821716,1717.159423828125,151.70120239257812,1804.468505859375,244.27891540527344
168,2,0.7662942409515381,558.6966552734375,389.1807861328125,684.1203002929688,477.1084899902344
168,2,0.7100071907043457,1103.1566162109375,110.2112045288086,1187.0247802734375,172.28480529785156
168,7,0.684296190738678,817.9165649414062,350.4240417480469,955.9033813476562,465.5406188964844
168,2,0.6393903493881226,1084.334228515625,215.5996856689453,1188.609375,300.59393310546875
168,7,0.5697083473205566,1087.03466796875,782.0306396484375,1301.3087158203125,981.509033203125
168,2,0.4061358571052551,1713.1329345703125,163.28164672851562,1796.9329833984375,247.42428588867188
168,2,0.29285764694213867,1755.900634765625,79.9061050415039,1836.985595703125,153.050537109375
168,7,0.2815402150154114,1755.76318359375,80.52440643310547,1837.313232421875,154.06715393066406
169,2,0.8721418380737305,563.4284057617188,384.15948486328125,691.128173828125,476.09747314453125
169,7,0.7511850595474243,822.1910400390625,348.0260925292969,959.5778198242188,463.84771728515625
169,2,0.6789889931678772,1088.7891845703125,213.87469482421875,1192.36279296875,298.535888671875
169,2,0.6317368745803833,1105.05810546875,104.37508392333984,1190.58154296875,169.35704040527344
169,7,0.5841255187988281,1084.68994140625,785.6070556640625,1300.5972900390625,987.548583984375
169,2,0.41958412528038025,1708.0711669921875,165.21986389160156,1797.7100830078125,251.93870544433594
169,2,0.3609977066516876,1756.6710205078125,86.91705322265625,1837.3238525390625,154.9844207763672
171,2,0.8957147598266602,575.4435424804688,381.6390686035156,702.0800170898438,467.11260986328125
171,2,0.7463138103485107,1109.30859375,104.22702026367188,1194.7364501953125,165.8787841796875
171,7,0.6140303611755371,834.1376953125,340.13702392578125,969.7763671875,457.662353515625
171,2,0.6000972390174866,1100.1029052734375,206.50076293945312,1199.0487060546875,294.13714599609375
171,7,0.5045129656791687,1077.2513427734375,791.8670654296875,1297.716552734375,1001.5922241210938
171,7,0.4092563986778259,1708.604736328125,165.4250946044922,1796.363525390625,253.91493225097656
171,7,0.2849075496196747,1757.7718505859375,86.68151092529297,1832.8524169921875,157.789306640625
171,2,0.2617388069629669,1707.85546875,167.47409057617188,1794.872314453125,256.2037048339844
174,2,0.807614266872406,592.7644653320312,374.9405822753906,717.8588256835938,462.1506042480469
174,2,0.776602029800415,1120.0755615234375,96.92092895507812,1201.9830322265625,158.16705322265625
174,7,0.7374966144561768,851.2630004882812,335.3463134765625,988.8114624023438,447.25213623046875
174,2,0.6543378233909607,1708.52490234375,173.73358154296875,1792.291259765625,257.95697021484375
174,7,0.45738911628723145,1068.8009033203125,803.6085815429688,1295.0657958984375,1017.6046752929688
174,2,0.42624911665916443,1109.7735595703125,202.08782958984375,1208.842529296875,285.27996826171875
174,7,0.29883068799972534,1753.0550537109375,93.00565338134766,1832.91796875,164.27110290527344
176,2,0.7672543525695801,1125.461181640625,92.9472427368164,1206.3828125,155.50338745117188
176,2,0.7415838241577148,606.591796875,371.3746032714844,728.6624145507812,456.68096923828125
176,2,0.7281940579414368,1118.8162841796875,196.82533264160156,1217.3914794921875,276.3863830566406
176,7,0.7209752798080444,867.117919921875,329.8409729003906,998.8458251953125,441.83349609375
176,7,0.4982825815677643,1064.736083984375,813.0548095703125,1289.146484375,1029.6209716796875
176,2,0.47571036219596863,1706.505615234375,177.4390411376953,1789.9969482421875,266.8331298828125
176,2,0.46066972613334656,1064.7066650390625,813.1080322265625,1289.4364013671875,1031.7344970703125
176,7,0.36028432846069336,1751.7410888671875,96.42432403564453,1831.2440185546875,170.82806396484375
176,7,0.2982611358165741,1704.646728515625,176.6849822998047,1790.84033203125,265.48095703125
176,2,0.26192134618759155,1750.54833984375,97.03092956542969,1830.29736328125,172.1546630859375
178,2,0.8749266862869263,619.5776977539062,364.41961669921875,739.6669921875,453.30780029296875
178,2,0.686262845993042,1130.286376953125,88.39059448242188,1213.47705078125,151.10684204101562
178,2,0.6099692583084106,1126.7666015625,190.04356384277344,1223.621337890625,273.5517272949219
178,2,0.5860385298728943,1702.2645263671875,183.2479248046875,1787.81103515625,267.8885498046875
178,7,0.5664345622062683,878.2355346679688,323.5132751464844,1009.4683227539062,438.088623046875
178,7,0.557948112487793,1056.328125,823.3336181640625,1289.9517822265625,1042.7984619140625
178,7,0.45494544506073,1749.3072509765625,96.95439147949219,1832.2196044921875,176.69810485839844
178,2,0.4288862645626068,1056.0643310546875,824.62646484375,1289.3927001953125,1044.064453125
179,2,0.8757163882255554,624.9591064453125,363.6031799316406,746.8635864257812,449.5050964355469
179,2,0.8239492774009705,1131.9931640625,83.63191223144531,1217.230224609375,150.3983154296875
179,2,0.7514089941978455,1128.1884765625,187.65966796875,1227.5244140625,271.7430725097656
179,7,0.6051373481750488,880.092041015625,321.9165344238281,1013.6334228515625,433.7895812988281
179,2,0.5908982157707214,1699.4659423828125,186.1968994140625,1783.8878173828125,269.5472717285156
179,7,0.4901103973388672,1052.9542236328125,829.9508056640625,1284.43212890625,1048.0067138671875
179,7,0.47945499420166016,1746.6932373046875,101.19712829589844,1830.3167724609375,178.1625518798828
179,2,0.4302980899810791,1050.9517822265625,830.8573608398438,1284.9151611328125,1049.1160888671875
180,2,0.8791163563728333,629.5643310546875,357.40594482421875,752.4691772460938,444.459228515625
180,2,0.8257243633270264,1134.772705078125,83.78240203857422,1218.087890625,147.06886291503906
180,7,0.6379894018173218,888.8521728515625,317.1080017089844,1019.953125,431.218505859375
180,2,0.5923687815666199,1131.6234130859375,183.6822052001953,1231.9344482421875,267.6322937011719
180,2,0.5615333318710327,1698.3717041015625,188.11175537109375,1784.0145263671875,272.0847473144531
180,7,0.508300244808197,1050.9207763671875,832.3779296875,1284.2322998046875,1052.907958984375
180,2,0.4399799406528473,1047.7025146484375,832.963623046875,1284.7955322265625,1055.794921875
180,7,0.41695213317871094,1743.4852294921875,105.84331512451172,1828.0257568359375,180.67767333984375
181,2,0.8779600262641907,636.3779907226562,359.07916259765625,758.2877807617188,443.3839416503906
181,2,0.8081289529800415,1138.890380859375,81.91218566894531,1219.232666015625,144.68394470214844
181,7,0.6136170029640198,893.4810791015625,314.92724609375,1026.66796875,429.37603759765625
181,2,0.544355034828186,1136.8809814453125,181.8573760986328,1236.2640380859375,264.7735290527344
181,7,0.5291558504104614,1050.972900390625,835.4984130859375,1285.01953125,1062.2105712890625
181,2,0.4712003469467163,1048.1190185546875,835.8978881835938,1285.35302734375,1063.327880859375
181,2,0.45359307527542114,1695.5137939453125,187.9340057373047,1782.8770751953125,276.7049865722656
181,7,0.41821983456611633,1742.1917724609375,108.52157592773438,1822.0850830078125,184.97186279296875
181,2,0.3580900728702545,893.2850341796875,314.1965637207031,1028.8443603515625,429.4150390625
183,2,0.8495802283287048,648.73828125,354.674560546875,767.1058959960938,440.2792053222656
183,2,0.7525019645690918,1142.263916015625,80.34935760498047,1224.566162109375,139.2402801513672
183,7,0.6505306363105774,903.6557006835938,310.154541015625,1037.73681640625,420.8696594238281
183,2,0.6431921124458313,1044.2589111328125,856.9334716796875,1279.947509765625,1073.3529052734375
183,2,0.4521194398403168,1146.4549560546875,175.3167724609375,1245.0880126953125,260.7497863769531
183,7,0.4466964900493622,1742.9915771484375,111.04529571533203,1820.6912841796875,185.06507873535156
183,2,0.44628313183784485,1694.496826171875,192.2226104736328,1783.7197265625,280.4786682128906
183,2,0.3331620693206787,1807.7105712890625,6.692470550537109,1860.0596923828125,56.377349853515625
184,2,0.7934412956237793,653.0304565429688,352.423828125,772.9466552734375,439.3949890136719
184,2,0.7549499273300171,1145.4908447265625,80.30136108398438,1225.3365478515625,136.37673950195312
184,2,0.6970186829566956,1151.8223876953125,172.6490478515625,1246.8233642578125,255.0047149658203
184,7,0.6814300417900085,914.148193359375,307.9395446777344,1042.425048828125,417.7272033691406
184,2,0.6653795838356018,1043.0875244140625,862.1779174804688,1282.6572265625,1077.02099609375
184,2,0.4869024157524109,1693.923828125,193.26097106933594,1784.063720703125,284.4342041015625
184,7,0.3710065484046936,1740.9151611328125,112.42781066894531,1820.0533447265625,187.14697265625
187,2,0.8283001184463501,672.2744750976562,348.37335205078125,788.5177612304688,431.61419677734375
187,2,0.7077405452728271,1152.8939208984375,71.65695190429688,1235.6231689453125,130.89651489257812
187,7,0.705427348613739,928.9194946289062,300.9219665527344,1058.440185546875,409.1523132324219
187,2,0.689679741859436,1042.5257568359375,874.6609497070312,1278.1552734375,1078.4990234375
187,2,0.6216920018196106,1690.143310546875,197.41314697265625,1783.283203125,292.37200927734375
187,2,0.5353464484214783,1157.7579345703125,165.11709594726562,1256.727783203125,248.55349731445312
187,7,0.35046902298927307,1735.2095947265625,118.888916015625,1818.9136962890625,197.25929260253906
187,2,0.3133971691131592,1804.5025634765625,7.701996803283691,1862.0694580078125,63.16048049926758
188,2,0.7587307691574097,677.2540893554688,346.4997863769531,792.3073120117188,429.188232421875
188,2,0.7313780784606934,1154.462158203125,70.00801849365234,1239.29638671875,129.98443603515625
188,2,0.71146559715271,1160.6678466796875,162.6302947998047,1260.5364990234375,246.70216369628906
188,7,0.6521584987640381,934.9630737304688,298.129638671875,1063.477783203125,405.7700500488281
188,2,0.6133896112442017,1042.0594482421875,881.6553955078125,1279.7147216796875,1079.135498046875
188,2,0.5113486647605896,1686.9627685546875,202.9932403564453,1780.688232421875,294.0849914550781
188,2,0.39311420917510986,1802.49755859375,12.529895782470703,1862.3583984375,66.14582061767578
188,7,0.3394535183906555,1730.0943603515625,121.87200164794922,1818.9093017578125,198.63333129882812
189,2,0.8050563931465149,681.9571533203125,341.3865661621094,800.56298828125,426.6416015625
189,2,0.7605952024459839,1166.28076171875,160.6573944091797,1264.034912109375,242.78775024414062
189,2,0.6805044412612915,1041.1947021484375,885.9598388671875,1279.3486328125,1079.2159423828125
189,7,0.6714955568313599,938.4193725585938,296.0168762207031,1068.8958740234375,404.6202392578125
189,2,0.6685194373130798,1157.961669921875,70.75586700439453,1239.015869140625,128.87461853027344
189,2,0.48392972350120544,1687.0185546875,201.94808959960938,1779.773193359375,295.61865234375
189,7,0.46187886595726013,1730.176513671875,123.8100814819336,1818.751220703125,202.39596557617188
190,2,0.8580089807510376,688.00048828125,341.2292175292969,805.5252685546875,422.4872131347656
190,7,0.7020024657249451,944.366455078125,293.4955749511719,1074.6181640625,401.7953186035156
190,2,0.6707026958465576,1683.5826416015625,206.10800170898438,1778.1463623046875,298.60748291015625
190,2,0.6660899519920349,1162.1514892578125,66.02481842041016,1242.874267578125,126.97744750976562
190,2,0.6648536920547485,1041.428466796875,889.957763671875,1279.4205322265625,1079.80810546875
190,2,0.6204257607460022,1170.2896728515625,158.5323028564453,1263.1563720703125,238.90489196777344
190,7,0.46592527627944946,1728.752197265625,128.46102905273438,1820.4876708984375,205.4447479248047
190,2,0.26701682806015015,1800.617431640625,11.248366355895996,1862.31591796875,69.9522476196289
191,2,0.9068812727928162,692.88134765625,338.7521057128906,810.3744506835938,419.714111328125
191,2,0.7236273288726807,1164.2462158203125,61.33094787597656,1245.1656494140625,124.01742553710938
191,2,0.7203643918037415,1040.485595703125,897.2162475585938,1280.54931640625,1077.4703369140625
191,7,0.6968773007392883,948.7344360351562,292.3179931640625,1077.5904541015625,397.7574768066406
191,2,0.46873238682746887,1174.3935546875,156.47373962402344,1266.9942626953125,236.3957061767578
191,2,0.3896736204624176,1682.921630859375,212.48411560058594,1775.586181640625,300.5605773925781
191,7,0.3497905433177948,1728.585205078125,130.73680114746094,1817.313720703125,203.71124267578125
191,2,0.2731016278266907,1800.6807861328125,29.985488891601562,1861.4593505859375,72.7589111328125
191,2,0.2623453140258789,1729.787109375,131.5970458984375,1813.70068359375,203.2315673828125
192,2,0.8719868659973145,697.827392578125,335.85284423828125,814.5391845703125,417.9335632324219
192,2,0.737473726272583,1167.3526611328125,62.71149444580078,1247.1580810546875,120.42022705078125
192,7,0.7272388339042664,957.7088012695312,288.6856689453125,1084.047119140625,394.8340148925781
192,2,0.6947425603866577,1038.91015625,905.1007690429688,1283.55224609375,1080.0
192,2,0.6254227757453918,1176.49658203125,152.40379333496094,1271.423583984375,232.72833251953125
192,7,0.355866938829422,1725.318603515625,135.52487182617188,1816.210693359375,206.6663818359375
192,2,0.3112061023712158,1798.0345458984375,9.174911499023438,1864.5205078125,75.16744995117188
192,2,0.2946220338344574,1681.36083984375,213.3057861328125,1774.656005859375,303.2296142578125
192,2,0.2941949963569641,1726.4791259765625,134.79139709472656,1813.4293212890625,206.12210083007812
194,2,0.8167392611503601,709.9157104492188,332.7889404296875,826.01611328125,416.0845642089844
194,2,0.7851369380950928,1030.237060546875,915.1712036132812,1283.619140625,1080.0
194,2,0.7280745506286621,1172.165283203125,58.39472579956055,1248.86865234375,117.11719512939453
194,7,0.6624318361282349,967.99072265625,283.3122253417969,1093.5904541015625,391.3343811035156
194,2,0.5169091820716858,1795.0224609375,15.800273895263672,1865.021484375,78.2271957397461
194,2,0.46996909379959106,1183.2598876953125,150.47471618652344,1277.2816162109375,226.39065551757812
194,7,0.3669876456260681,1724.7264404296875,138.44094848632812,1811.6766357421875,210.9111785888672
194,7,0.33220377564430237,1679.73681640625,214.07638549804688,1771.350341796875,305.7380676269531
198,2,0.8501455187797546,734.3575439453125,325.722412109375,847.1543579101562,404.87908935546875
198,2,0.771781325340271,1028.7728271484375,940.3196411132812,1286.3861083984375,1080.0
198,2,0.7410473227500916,1181.2763671875,49.37636947631836,1258.68994140625,108.41984558105469
198,2,0.6742312908172607,1196.498291015625,135.9600372314453,1291.4061279296875,215.60231018066406
198,7,0.5610238909721375,986.7388916015625,273.843017578125,1112.73779296875,379.9519958496094
198,2,0.40851807594299316,1675.525634765625,221.21804809570312,1764.06591796875,313.2263488769531
198,7,0.3561725318431854,1674.56396484375,222.03135681152344,1763.2177734375,315.2734069824219
198,2,0.2930951714515686,1790.2093505859375,13.154205322265625,1865.1434326171875,88.85980987548828
198,7,0.2560182809829712,1790.959716796875,7.88364315032959,1866.683349609375,85.77006530761719
201,2,0.875018298625946,748.1417236328125,317.9731140136719,862.0474243164062,395.8561096191406
201,2,0.7824681401252747,1204.480224609375,128.40371704101562,1300.669189453125,208.01651000976562
201,2,0.7036072015762329,1188.5189208984375,46.01373291015625,1266.388427734375,104.38492584228516
201,2,0.603216826915741,1027.5888671875,962.1044921875,1294.905029296875,1075.6190185546875
201,7,0.5965272784233093,1005.83935546875,263.1438903808594,1125.9503173828125,368.9979248046875
201,7,0.5077003836631775,1670.8492431640625,224.71412658691406,1760.8258056640625,323.02252197265625
201,2,0.38532015681266785,1786.5823974609375,21.75838851928711,1861.097900390625,94.74921417236328
201,7,0.28045839071273804,1714.42529296875,152.01333618164062,1803.8525390625,229.6288604736328
203,2,0.8708357810974121,757.714111328125,313.69989013671875,872.001953125,393.9981384277344
203,2,0.8182128071784973,1212.5108642578125,125.13833618164062,1304.839599609375,201.9147491455078
203,2,0.7408445477485657,1193.0643310546875,44.674644470214844,1271.6602783203125,99.35719299316406
203,2,0.598543643951416,1036.2696533203125,976.9136352539062,1307.297607421875,1074.625244140625
203,7,0.5731592774391174,1016.078125,259.2151184082031,1137.13916015625,365.4483337402344
203,7,0.46633514761924744,1666.3619384765625,227.64990234375,1760.0789794921875,326.1230163574219
203,7,0.3906719386577606,0.16995620727539062,580.9407958984375,68.35568237304688,703.8778076171875
203,2,0.34655070304870605,1782.1636962890625,31.4688720703125,1860.8660888671875,97.86561584472656
203,7,0.33439433574676514,1714.001220703125,158.85943603515625,1797.6998291015625,231.38916015625
203,2,0.33045056462287903,0.16845703125,584.2640991210938,68.91554260253906,704.5270385742188
206,2,0.8600537180900574,775.7221069335938,306.26580810546875,886.2658081054688,390.35498046875
206,2,0.8061612248420715,1198.799560546875,37.91246795654297,1276.8597412109375,92.14471435546875
206,2,0.683782160282135,1225.4814453125,116.66580963134766,1315.547607421875,195.56723022460938
206,7,0.6750656366348267,1030.860107421875,252.78053283691406,1151.8272705078125,356.8126220703125
206,2,0.5587517619132996,1054.01708984375,1000.5071411132812,1281.6192626953125,1078.0350341796875
206,7,0.5194729566574097,1661.43603515625,232.88442993164062,1756.204833984375,329.893798828125
206,2,0.5185061693191528,0.050411224365234375,580.8001098632812,93.26024627685547,695.1676025390625
206,7,0.27372610569000244,1711.083251953125,163.34408569335938,1800.4892578125,243.39129638671875
207,2,0.7959609627723694,1200.5408935546875,37.47251510620117,1278.1514892578125,91.96016693115234
207,2,0.7749000191688538,780.5549926757812,305.71502685546875,891.6853637695312,385.9295959472656
207,2,0.7481644153594971,0.4543418884277344,574.9640502929688,97.83222961425781,692.8079833984375
207,7,0.7218660712242126,1033.971435546875,249.24449157714844,1154.809326171875,351.6695556640625
207,2,0.7042120099067688,1227.4830322265625,113.58027648925781,1316.919677734375,191.41966247558594
207,2,0.5953851938247681,1061.6368408203125,1007.2047729492188,1283.347900390625,1078.8538818359375
207,7,0.46138492226600647,1660.39892578125,234.85281372070312,1755.908935546875,331.28570556640625
207,2,0.4000571668148041,1775.937744140625,43.48542404174805,1855.975341796875,106.3765640258789
208,2,0.8480133414268494,785.840576171875,303.19329833984375,894.6304931640625,382.9657287597656
208,2,0.8055892586708069,1230.3489990234375,112.66548156738281,1318.740234375,189.19606018066406
208,2,0.8035756349563599,1201.5472412109375,36.165218353271484,1280.618408203125,90.0557861328125
208,2,0.7770860195159912,0.27761077880859375,573.5114135742188,108.29328918457031,689.0276489257812
208,7,0.693577766418457,1040.6546630859375,245.0785675048828,1160.0577392578125,349.546630859375
208,2,0.4686678946018219,1063.781982421875,1014.4658813476562,1285.17919921875,1077.7593994140625
208,7,0.409218430519104,1659.00732421875,236.81002807617188,1753.269287109375,329.6228942871094
208,2,0.3963989019393921,1775.307861328125,45.223243713378906,1854.602783203125,107.18916320800781
208,7,0.38897469639778137,1710.038818359375,169.0751953125,1799.8868408203125,243.83523559570312
209,2,0.8054498434066772,793.3831787109375,301.58123779296875,902.4261474609375,380.18792724609375
209,2,0.7949246764183044,1232.669921875,109.94677734375,1320.5244140625,187.54275512695312
209,2,0.7770189046859741,0.10956573486328125,569.5479736328125,117.60468292236328,683.46044921875
209,2,0.7017123103141785,1204.9896240234375,34.80040740966797,1283.0255126953125,88.89470672607422
209,7,0.5930943489074707,1045.4244384765625,241.95721435546875,1165.1201171875,346.4098205566406
209,2,0.5314756631851196,1773.815673828125,46.261016845703125,1851.1572265625,109.81519317626953
209,2,0.3885505795478821,1659.609375,239.1167449951172,1751.083740234375,333.04937744140625
209,7,0.3773062825202942,1706.47265625,171.46156311035156,1799.16650390625,245.5198516845703
209,7,0.25714850425720215,1659.3321533203125,241.93313598632812,1748.9674072265625,335.2720642089844
211,2,0.7836227416992188,1236.37646484375,105.90367126464844,1326.5172119140625,180.1492462158203
211,2,0.7824252247810364,0.0,568.7076416015625,131.97607421875,681.7449340820312
211,2,0.7688754796981812,801.6618041992188,299.74951171875,909.4788818359375,376.16510009765625
211,2,0.6510968208312988,1212.3724365234375,31.005191802978516,1288.36669921875,83.2818603515625
211,7,0.5386508703231812,1058.5467529296875,238.64712524414062,1170.6197509765625,342.5425720214844
211,2,0.44258394837379456,1702.499267578125,174.84320068359375,1792.4443359375,253.10174560546875
211,2,0.4076818525791168,1772.4664306640625,49.21552658081055,1851.8470458984375,114.04712677001953
211,2,0.26317521929740906,1654.068603515625,247.95217895507812,1748.605224609375,339.6044616699219
212,2,0.7844555974006653,0.0,564.6963500976562,140.13436889648438,677.1403198242188
212,2,0.7177659273147583,807.4537353515625,294.5991516113281,914.09765625,371.9815979003906
212,2,0.6977482438087463,1213.1104736328125,28.331085205078125,1290.2872314453125,82.74430847167969
212,2,0.6876946091651917,1239.54345703125,102.94033813476562,1331.947998046875,178.63453674316406
212,7,0.5329519510269165,1060.626708984375,233.1908721923828,1175.05859375,340.5309143066406
212,2,0.47546273469924927,1768.3194580078125,50.33224868774414,1850.4869384765625,118.43647003173828
212,2,0.32947102189064026,1703.8201904296875,176.47787475585938,1789.6263427734375,252.38763427734375
214,2,0.8080983757972717,819.9049682617188,289.59869384765625,925.9113159179688,367.83062744140625
214,2,0.76127028465271,2.3166275024414062,560.255859375,153.45863342285156,672.6051635742188
214,7,0.6524253487586975,1067.99853515625,231.36717224121094,1186.6966552734375,333.1150207519531
214,2,0.5864719748497009,1214.4332275390625,25.197086334228516,1294.1280517578125,80.57894897460938
214,2,0.4842880368232727,1765.209228515625,54.855079650878906,1845.47021484375,121.12660217285156
214,2,0.46551257371902466,1247.356201171875,102.06907653808594,1333.9259033203125,175.64524841308594
214,2,0.3855079412460327,0.2007150650024414,644.4576416015625,21.417068481445312,734.326904296875
214,2,0.2734142243862152,1695.749267578125,181.20396423339844,1786.021728515625,251.1356964111328
216,2,0.8447673916816711,828.4960327148438,284.54400634765625,933.4480590820312,363.7752685546875
216,2,0.7960361838340759,8.33041763305664,551.7173461914062,170.15675354003906,666.741943359375
216,2,0.5986602902412415,1251.016357421875,93.4999008178711,1339.9678955078125,168.2020263671875
216,7,0.5713499784469604,1078.2158203125,222.96377563476562,1195.108154296875,324.1251525878906
216,2,0.5570319890975952,1221.6688232421875,19.663787841796875,1297.894775390625,75.18917083740234
216,2,0.5438079237937927,0.17931461334228516,631.141845703125,40.11671447753906,728.6676635742188
216,2,0.46026483178138733,1762.921142578125,58.15599060058594,1844.51806640625,124.21440124511719
216,7,0.30317845940589905,1698.6036376953125,184.27162170410156,1786.14453125,256.9861755371094
218,2,0.8182337880134583,836.5455322265625,281.8431701660156,941.5387573242188,357.7167663574219
218,2,0.7154334783554077,32.29712677001953,551.1233520507812,185.9307098388672,658.5227661132812
218,2,0.6766892075538635,0.0,615.329345703125,59.985984802246094,728.533447265625
218,2,0.6559461355209351,1258.186279296875,87.60449981689453,1345.470458984375,164.971435546875
218,7,0.5019605755805969,1088.229248046875,216.36973571777344,1203.1004638671875,319.2464294433594
218,2,0.4802629053592682,1225.8963623046875,14.26629638671875,1300.830810546875,72.68492889404297
218,2,0.3405570089817047,1756.501953125,62.27866744995117,1841.2340087890625,134.22329711914062
220,2,0.8357126116752625,845.7022705078125,278.5316467285156,953.45361328125,353.92889404296875
220,2,0.7918883562088013,0.0,604.5537719726562,76.13619232177734,722.01611328125
220,2,0.780144453048706,1263.7611083984375,84.23556518554688,1352.109130859375,161.10260009765625
220,2,0.6923084855079651,48.78032684326172,544.9913330078125,201.21249389648438,656.1563110351562
220,2,0.5860463976860046,1227.8228759765625,5.710784912109375,1307.2576904296875,69.34481048583984
220,2,0.568038284778595,1637.8692626953125,265.012939453125,1736.6158447265625,359.4298095703125
220,7,0.5552049875259399,1095.197509765625,212.7861785888672,1210.047119140625,315.7325439453125
220,2,0.5074395537376404,1753.6085205078125,66.2387924194336,1836.818603515625,139.62823486328125
220,2,0.3723393678665161,1683.0748291015625,195.07310485839844,1778.0985107421875,270.6022644042969
220,2,0.37012892961502075,1094.943603515625,211.566650390625,1208.8817138671875,315.09063720703125
222,2,0.8167716860771179,855.4989624023438,271.82342529296875,958.6763305664062,346.9723815917969
222,2,0.7798116207122803,0.0,602.0975341796875,96.95597839355469,717.5999145507812
222,2,0.7670367360115051,64.86115264892578,542.3622436523438,214.8590850830078,648.8478393554688
222,2,0.728206992149353,1234.683349609375,4.469570159912109,1312.1004638671875,64.19448852539062
222,2,0.6866982579231262,1269.97509765625,79.4651870727539,1355.9544677734375,154.06027221679688
222,2,0.56496262550354,1750.8841552734375,70.07530975341797,1833.2091064453125,144.89979553222656
222,7,0.5341005325317383,1105.802978515625,208.30091857910156,1217.6529541015625,309.53082275390625
222,2,0.4715545177459717,1106.373046875,208.69432067871094,1216.9888916015625,309.3626708984375
222,2,0.37098053097724915,1683.845703125,198.21739196777344,1770.499267578125,274.0398864746094
222,7,0.3027019202709198,1632.7181396484375,268.50048828125,1736.8505859375,367.4445495605469
225,2,0.8411393761634827,87.53070831298828,534.6034545898438,239.98948669433594,639.8457641601562
225,2,0.8197126984596252,0.15118789672851562,596.9382934570312,121.97354125976562,708.2611083984375
225,2,0.8073294758796692,868.3759155273438,266.30596923828125,972.38623046875,344.0157165527344
225,2,0.6926029920578003,1239.580810546875,4.275464057922363,1316.438232421875,60.35492706298828
225,2,0.6419945955276489,1277.09619140625,75.80474853515625,1363.516357421875,149.96859741210938
225,2,0.6037153601646423,1743.0894775390625,79.70166778564453,1831.4517822265625,153.877685546875
225,7,0.5240272879600525,1117.2547607421875,201.60928344726562,1226.6683349609375,297.6839904785156
225,7,0.3879987597465515,1627.2542724609375,271.0199890136719,1729.1246337890625,373.8381042480469
226,2,0.8399645090103149,95.27879333496094,530.803955078125,245.7010040283203,636.0701904296875
226,2,0.8390133380889893,0.0,593.926025390625,129.5292205810547,706.02685546875
226,2,0.6933962106704712,1243.3038330078125,3.3217763900756836,1318.4085693359375,59.352115631103516
226,2,0.6598039865493774,1741.5194091796875,80.99794006347656,1829.0255126953125,157.0433807373047
226,2,0.6556023955345154,871.5908203125,267.14508056640625,977.3585815429688,342.0007019042969
226,2,0.5733627080917358,1280.8822021484375,75.85624694824219,1364.7569580078125,145.29429626464844
226,7,0.5029618740081787,1121.7890625,198.75454711914062,1230.6793212890625,296.6663818359375
226,7,0.3732012212276459,1624.15283203125,275.35577392578125,1725.284912109375,377.06671142578125
226,2,0.3471548557281494,1680.21533203125,209.55267333984375,1767.618896484375,289.75213623046875
226,7,0.34617677330970764,1680.5361328125,210.7627716064453,1767.951416015625,287.7943115234375
226,2,0.3327423632144928,1624.7894287109375,278.3697509765625,1725.7310791015625,376.1717224121094
227,2,0.8685433268547058,102.46705627441406,530.9119262695312,253.77877807617188,634.275146484375
227,2,0.8224164247512817,0.0,592.7556762695312,136.0167999267578,702.132080078125
227,2,0.7541760206222534,1246.3050537109375,3.138808250427246,1319.9703369140625,57.920711517333984
227,2,0.6838533878326416,1740.090087890625,82.44426727294922,1826.0797119140625,161.1283416748047
227,2,0.6552037000656128,1284.424072265625,71.06304931640625,1367.9794921875,142.01651000976562
227,2,0.6136595606803894,877.435791015625,260.96026611328125,980.3958129882812,339.05523681640625
227,7,0.5183062553405762,1125.290771484375,195.4716796875,1235.2379150390625,294.83807373046875
227,7,0.464732825756073,1678.0689697265625,210.75595092773438,1766.9798583984375,291.5580139160156
227,2,0.46387848258018494,1624.3114013671875,276.4087829589844,1722.7708740234375,378.92010498046875
227,7,0.44927746057510376,1623.3211669921875,274.7016906738281,1722.0406494140625,378.83673095703125
228,2,0.844718337059021,0.0,589.7455444335938,146.5369110107422,697.3027954101562
228,2,0.7916462421417236,113.57913208007812,526.7612915039062,261.3207092285156,633.2281494140625
228,2,0.7146546840667725,1246.948974609375,0.6159095764160156,1321.205078125,57.3951530456543
228,2,0.693087100982666,1287.6822509765625,66.65565490722656,1369.6614990234375,140.2927703857422
228,2,0.6509631276130676,881.95166015625,258.2574462890625,984.686279296875,333.2005920410156
228,7,0.6169261336326599,1128.7835693359375,192.8690185546875,1237.2900390625,292.94256591796875
228,2,0.5725173354148865,1738.174072265625,83.30504608154297,1823.741455078125,164.399658203125
228,2,0.4862152636051178,1623.3782958984375,282.0660400390625,1720.7581787109375,382.40673828125
228,7,0.41607195138931274,1673.49169921875,211.66873168945312,1766.558349609375,295.54541015625
228,7,0.4064894914627075,1622.778076171875,283.01129150390625,1720.70068359375,381.63885498046875
228,2,0.3040718734264374,1672.3780517578125,213.21697998046875,1765.0426025390625,293.1885681152344
230,2,0.879738450050354,1.9031295776367188,581.584716796875,165.04627990722656,695.0863037109375
230,2,0.7972673773765564,127.14244079589844,521.5296630859375,275.375732421875,629.667724609375
230,2,0.7096887826919556,1292.7071533203125,63.37669372558594,1373.3837890625,136.64181518554688
230,2,0.702741801738739,891.336181640625,256.5829772949219,990.774169921875,329.3790283203125
230,7,0.5917156338691711,1671.8570556640625,214.58592224121094,1766.185302734375,298.7484130859375
230,2,0.5870126485824585,1250.021240234375,0.08467483520507812,1324.5977783203125,53.15437316894531
230,7,0.5650254487991333,1135.2540283203125,189.91607666015625,1243.5206298828125,286.14532470703125
230,7,0.48547324538230896,1620.15283203125,279.2588195800781,1718.63427734375,386.3394470214844
230,2,0.46764642000198364,1733.3013916015625,90.92257690429688,1817.2222900390625,169.25340270996094
230,2,0.4620828628540039,1621.4534912109375,280.3176574707031,1720.51611328125,388.9204406738281
230,2,0.3960459530353546,1671.9298095703125,214.92430114746094,1762.9998779296875,296.6947021484375
230,7,0.3373323678970337,1737.0377197265625,89.80089569091797,1817.698974609375,168.86917114257812
231,2,0.8184275031089783,8.27486801147461,580.4041748046875,171.9642791748047,691.9853515625
231,2,0.8148402571678162,133.13027954101562,521.7042846679688,282.1944580078125,625.7411499023438
231,2,0.7224805951118469,892.9833984375,255.8294219970703,997.0374755859375,328.0281677246094
231,2,0.6949124336242676,1297.9493408203125,62.491939544677734,1374.611572265625,132.52774047851562
231,7,0.5847737789154053,1670.77294921875,216.62832641601562,1765.96142578125,303.4243469238281
231,2,0.5320873260498047,1253.6214599609375,1.8664741516113281,1327.3258056640625,50.74946594238281
231,7,0.5312703251838684,1141.9068603515625,186.1431884765625,1246.734375,284.0274658203125
231,7,0.5237392783164978,1618.9483642578125,278.1138000488281,1716.4783935546875,387.8135681152344
231,2,0.4836493730545044,1620.1754150390625,280.5919189453125,1717.1986083984375,390.7427978515625
231,7,0.4173843264579773,1729.203125,92.17375946044922,1818.0821533203125,170.578369140625
231,2,0.31907108426094055,1729.326904296875,93.52734375,1817.01318359375,171.32308959960938
234,2,0.8981620669364929,36.052528381347656,573.5401611328125,198.52525329589844,681.8684692382812
234,2,0.7926353216171265,908.7837524414062,246.68638610839844,1007.1377563476562,319.7150573730469
234,2,0.701340913772583,158.63455200195312,514.6726684570312,303.4753723144531,616.8802490234375
234,2,0.5921604037284851,1263.113525390625,1.3159875869750977,1334.235107421875,45.1054801940918
234,2,0.585292637348175,1302.2847900390625,51.7484016418457,1386.5704345703125,127.93460083007812
234,7,0.4972407817840576,1612.492431640625,284.5355529785156,1712.4844970703125,394.0265808105469
234,2,0.49687060713768005,1725.4617919921875,102.17461395263672,1813.4432373046875,180.21163940429688
234,7,0.4490242898464203,1153.8739013671875,180.00096130371094,1259.3441162109375,273.6842041015625
234,7,0.33012497425079346,1665.242431640625,226.34866333007812,1756.204833984375,308.4808044433594
234,7,0.32557764649391174,1726.8123779296875,101.41568756103516,1811.901123046875,180.37725830078125
234,2,0.32456496357917786,1154.5078125,180.21578979492188,1257.898193359375,274.5806579589844
239,2,0.858711838722229,929.4429931640625,233.38302612304688,1028.6378173828125,308.5652160644531
239,2,0.8500585556030273,77.78846740722656,558.3682250976562,237.94744873046875,668.4080200195312
239,2,0.7352772355079651,1315.3433837890625,39.6262321472168,1396.186279296875,116.67792510986328
239,2,0.732904314994812,200.71641540527344,500.01959228515625,339.8022155761719,604.7171630859375
239,7,0.541405439376831,1169.6474609375,167.5561065673828,1269.8779296875,262.43695068359375
239,2,0.48741385340690613,1272.1849365234375,0.4435129165649414,1339.770263671875,37.240665435791016
239,7,0.4629400968551636,1601.3485107421875,302.4169921875,1702.2828369140625,406.3305358886719
239,2,0.4036712348461151,1712.1181640625,116.33894348144531,1799.2540283203125,191.96307373046875
239,7,0.36918166279792786,1651.7325439453125,237.3188018798828,1747.1253662109375,323.9781188964844
239,2,0.3021029531955719,1600.5927734375,302.2170104980469,1703.3321533203125,404.62921142578125
239,7,0.27470046281814575,1711.37109375,115.76669311523438,1801.1231689453125,193.22804260253906
239,2,0.26035183668136597,1651.049560546875,236.78631591796875,1745.215576171875,317.0754089355469
241,2,0.9050576090812683,939.9977416992188,230.27536010742188,1035.2030029296875,300.5580139160156
241,2,0.8575376868247986,99.13817596435547,556.5029296875,253.68997192382812,659.324951171875
241,2,0.8302875757217407,217.68736267089844,498.578369140625,353.4021911621094,598.2930908203125
241,2,0.7099385857582092,1320.046142578125,39.89543151855469,1400.5770263671875,109.9189224243164
241,7,0.564642071723938,1177.978759765625,163.0257568359375,1279.635986328125,253.14715576171875
241,2,0.5212569832801819,1648.8017578125,239.02020263671875,1744.5992431640625,321.76531982421875
241,7,0.4619910418987274,1597.3583984375,307.3035888671875,1704.2974853515625,408.8531799316406
241,2,0.4305304288864136,1274.988037109375,0.8647384643554688,1342.5067138671875,33.53927993774414
241,2,0.40548762679100037,1707.3641357421875,120.4992904663086,1796.67822265625,200.05201721191406
241,7,0.35410600900650024,1649.6295166015625,239.2309112548828,1744.1939697265625,325.01507568359375
241,7,0.3408264219760895,1707.0908203125,119.22257995605469,1797.216064453125,201.9141082763672
241,2,0.33632752299308777,1598.675537109375,306.8724060058594,1705.306640625,410.1910400390625
241,2,0.3045935332775116,1179.449462890625,162.56117248535156,1281.3187255859375,253.35324096679688
244,2,0.8647348880767822,950.71875,221.45445251464844,1048.4278564453125,297.629150390625
244,2,0.8323493599891663,123.47330474853516,546.2122192382812,276.607421875,654.6535034179688
244,2,0.6889446377754211,236.3133544921875,494.3319396972656,374.6758117675781,588.7083129882812
244,2,0.6353328227996826,1698.1710205078125,132.44912719726562,1790.8656005859375,210.5071258544922
244,2,0.5039373636245728,1326.2373046875,31.25287628173828,1411.0074462890625,105.47218322753906
244,7,0.4647754728794098,1186.59619140625,153.92230224609375,1287.16650390625,248.093994140625
244,2,0.30022791028022766,1281.2991943359375,0.4724922180175781,1350.416748046875,29.750839233398438
244,7,0.2823938727378845,1590.0091552734375,313.691162109375,1703.4796142578125,413.2687683105469
244,7,0.2754252851009369,1640.074951171875,244.62730407714844,1735.5780029296875,322.9993591308594
246,2,0.8795000314712524,955.5635375976562,220.3966827392578,1052.1292724609375,295.1422424316406
246,2,0.800994336605072,142.24081420898438,543.6256713867188,295.7533264160156,646.6256103515625
246,2,0.7115791440010071,251.75949096679688,484.6006164550781,389.4784240722656,585.50634765625
246,2,0.6951350569725037,1692.4237060546875,135.8241729736328,1785.6866455078125,215.92288208007812
246,7,0.49197739362716675,1190.7589111328125,147.28562927246094,1293.97998046875,242.96209716796875
246,2,0.47259923815727234,1332.281005859375,27.97917938232422,1413.427490234375,100.8595962524414
246,2,0.37043288350105286,1632.851806640625,251.4301300048828,1731.258544921875,330.3973693847656
246,7,0.3355461657047272,1632.1739501953125,252.05946350097656,1729.3011474609375,327.6213073730469
246,7,0.32604265213012695,1588.7652587890625,314.07952880859375,1695.740966796875,421.5399169921875
247,2,0.8325741291046143,961.3698120117188,218.8742218017578,1053.5335693359375,291.87310791015625
247,2,0.8204831480979919,151.7434844970703,540.552490234375,300.82244873046875,644.6619873046875
247,2,0.6676727533340454,255.8221893310547,487.3525085449219,392.8204650878906,583.52001953125
247,2,0.6671911478042603,1690.447265625,137.02523803710938,1783.985595703125,218.40248107910156
247,2,0.6297911405563354,1335.7576904296875,27.869522094726562,1413.0909423828125,97.29650115966797
247,7,0.4387620687484741,1194.888916015625,143.521728515625,1292.293701171875,238.402587890625
247,7,0.3525167405605316,1585.6103515625,316.51336669921875,1694.311279296875,425.09033203125
247,7,0.27305468916893005,1632.722900390625,251.795654296875,1729.4853515625,333.3846130371094
248,2,0.9189901351928711,158.5204620361328,539.1621704101562,309.6635437011719,642.6561279296875
248,2,0.7990444898605347,965.3441162109375,217.04673767089844,1059.1865234375,289.1758117675781
248,2,0.6425400376319885,1338.578369140625,28.301530838012695,1417.28369140625,95.81426239013672
248,2,0.6376646161079407,263.521484375,485.5769348144531,401.1787109375,581.0025024414062
248,2,0.6153758764266968,1686.716064453125,139.37274169921875,1782.669921875,222.0886688232422
248,7,0.3965483009815216,1583.7103271484375,317.6338806152344,1694.6671142578125,428.3019104003906
248,7,0.3747750520706177,1200.8167724609375,143.2020263671875,1292.8927001953125,236.40843200683594
248,2,0.32668930292129517,1631.9715576171875,255.96429443359375,1726.1822509765625,328.85693359375
248,7,0.28140226006507874,1629.6097412109375,255.39395141601562,1725.443115234375,326.5565490722656
249,2,0.9234920144081116,167.45826721191406,535.699951171875,318.1645202636719,638.715087890625
249,2,0.7873725295066833,968.6412963867188,213.56776428222656,1060.677001953125,287.5552673339844
249,2,0.5709027051925659,1682.7322998046875,141.76126098632812,1778.8465576171875,225.06591796875
249,2,0.564070999622345,270.9909973144531,479.86834716796875,406.7259521484375,577.56884765625
249,2,0.5047134757041931,1341.25341796875,26.483642578125,1417.95556640625,94.13333129882812
249,7,0.3610787093639374,1579.91015625,321.2035217285156,1689.990966796875,430.9750671386719
249,2,0.3308085501194,1202.208984375,139.98704528808594,1299.5015869140625,232.86044311523438
249,2,0.30565470457077026,1579.229736328125,320.7229919433594,1689.4822998046875,431.629150390625
249,7,0.2962004542350769,1202.39599609375,138.9637908935547,1298.9896240234375,233.5549774169922
250,2,0.844931960105896,174.22567749023438,534.198974609375,327.128173828125,635.3215942382812
250,2,0.8372498750686646,971.438232421875,210.96263122558594,1065.1590576171875,283.4826354980469
250,2,0.5553995966911316,271.9194030761719,476.482177734375,412.26708984375,573.6154174804688
250,2,0.4769710302352905,1682.095947265625,143.54876708984375,1777.2327880859375,228.6741485595703
250,2,0.41435229778289795,1344.962890625,23.53553009033203,1421.4892578125,92.30561828613281
250,7,0.40546348690986633,1578.6241455078125,323.7851257324219,1683.5780029296875,435.4574890136719
250,2,0.37760430574417114,1204.026611328125,137.74606323242188,1306.1064453125,229.1656951904297
250,7,0.3332357108592987,1204.127685546875,136.91961669921875,1306.654296875,229.6886444091797
252,2,0.8470606803894043,191.61737060546875,529.20947265625,340.4128112792969,632.4360961914062
252,2,0.748187780380249,980.6229858398438,208.10614013671875,1073.3658447265625,277.64996337890625
252,2,0.5998448133468628,283.915283203125,476.4338684082031,428.2043151855469,571.1373901367188
252,2,0.5385623574256897,1675.037109375,150.1449432373047,1773.38232421875,234.9293670654297
252,7,0.46492940187454224,1212.1402587890625,130.73345947265625,1308.015869140625,224.54708862304688
252,2,0.4482923448085785,1347.377685546875,15.107093811035156,1423.672607421875,86.73463439941406
252,7,0.4150525629520416,1574.643310546875,321.93243408203125,1681.795166015625,439.8089904785156
252,7,0.2785133123397827,1618.06494140625,264.9097900390625,1714.130859375,331.7431640625
256,2,0.862826943397522,221.41424560546875,518.4058837890625,370.1701354980469,621.7388916015625
256,2,0.8141990303993225,991.1129150390625,199.10678100585938,1084.184814453125,271.3281555175781
256,2,0.7905797958374023,323.1676940917969,464.6018371582031,454.8460693359375,559.1499633789062
256,2,0.5991401672363281,1663.18505859375,162.51095581054688,1760.791259765625,245.69329833984375
256,2,0.5173580646514893,1355.1505126953125,8.104591369628906,1432.4437255859375,81.09130859375
256,2,0.45698124170303345,1216.9637451171875,121.64888763427734,1314.1517333984375,213.56956481933594
256,7,0.3445388376712799,1562.99853515625,342.1083984375,1670.442626953125,442.91015625
256,7,0.33056533336639404,1217.0191650390625,120.39413452148438,1315.5736083984375,212.67974853515625
258,2,0.8981180787086487,239.57395935058594,517.2677001953125,381.7903747558594,611.1658325195312
258,2,0.7190128564834595,998.2402954101562,195.6953887939453,1088.756591796875,265.6412048339844
258,2,0.6576254963874817,334.4709777832031,458.9210205078125,467.2817687988281,555.4149169921875
258,2,0.6373134255409241,1657.37744140625,167.88194274902344,1754.59619140625,253.86790466308594
258,2,0.560312807559967,1361.3177490234375,6.792377471923828,1436.063232421875,76.10742950439453
258,7,0.4577890932559967,1560.7796630859375,344.9952697753906,1674.2288818359375,447.3642272949219
258,2,0.45058783888816833,1597.6429443359375,279.8520812988281,1699.8927001953125,364.66571044921875
258,2,0.41992250084877014,1223.841796875,118.56084442138672,1316.69677734375,206.13743591308594
258,2,0.3863894045352936,0.0,694.3612670898438,52.751529693603516,832.9100341796875
258,7,0.38243892788887024,1223.732666015625,118.94792175292969,1317.5460205078125,205.9299774169922
258,7,0.28960901498794556,1600.39599609375,280.4255065917969,1703.321044921875,361.4925231933594
258,2,0.2763000428676605,1560.7452392578125,348.866943359375,1670.3712158203125,446.6773986816406
259,2,0.8342787027359009,245.47412109375,512.75927734375,392.5760192871094,609.6905517578125
259,2,0.7123878598213196,1000.3090209960938,193.0895233154297,1094.5364990234375,262.7041015625
259,2,0.6284230947494507,343.9446716308594,456.3538513183594,475.8044128417969,551.8272094726562
259,2,0.6063735485076904,0.0,694.1995849609375,65.07522583007812,830.5075073242188
259,2,0.5436050295829773,1363.1412353515625,6.173961639404297,1439.7320556640625,73.61708068847656
259,2,0.5159378051757812,1224.7174072265625,113.63024139404297,1319.694580078125,204.94296264648438
259,2,0.4986283481121063,1590.734375,281.992431640625,1696.696044921875,369.98760986328125
259,2,0.48698440194129944,1654.5208740234375,172.02516174316406,1752.966796875,258.5103454589844
259,7,0.3401258885860443,1656.1029052734375,170.0467987060547,1753.9676513671875,258.7754821777344
259,7,0.3377460539340973,1559.075439453125,350.2478942871094,1668.0858154296875,443.7516174316406
259,2,0.30276039242744446,1557.131103515625,351.05126953125,1667.524658203125,446.712158203125
259,7,0.2581874132156372,1596.221923828125,283.3440246582031,1695.5372314453125,366.6625671386719
263,2,0.8874720931053162,276.9632568359375,503.8191833496094,419.9964599609375,602.8085327148438
263,2,0.8606361150741577,1015.7730102539062,184.2025909423828,1105.5367431640625,252.4595947265625
263,2,0.7208489179611206,371.9925842285156,453.43670654296875,499.5238037109375,540.3659057617188
263,2,0.7047183513641357,0.36829376220703125,678.92724609375,107.36835479736328,814.6990356445312
263,2,0.6231987476348877,1642.8482666015625,182.56668090820312,1742.3485107421875,268.3806457519531
263,2,0.5633395910263062,1579.4208984375,291.99114990234375,1682.4737548828125,378.04571533203125
263,7,0.4543071985244751,1233.5478515625,108.07846069335938,1330.7578125,196.41665649414062
263,2,0.4185057580471039,1371.7760009765625,3.0625762939453125,1448.0654296875,65.22344970703125
263,2,0.39058634638786316,1547.09228515625,360.4014587402344,1658.05126953125,457.9580383300781
263,2,0.35222765803337097,1234.4359130859375,107.6912841796875,1329.781494140625,195.6273651123047
263,7,0.3411480486392975,1370.5714111328125,2.230462074279785,1447.14501953125,67.46189880371094
265,2,0.8741670846939087,1023.041748046875,180.5836944580078,1109.2071533203125,249.83665466308594
265,2,0.8693602085113525,293.5329895019531,496.6995849609375,432.5121765136719,596.9330444335938
265,2,0.7334499359130859,392.74468994140625,444.2673645019531,512.6694946289062,538.0130615234375
265,2,0.6924688220024109,0.0,670.4937744140625,130.5211639404297,803.3963012695312
265,2,0.6550439596176147,1634.9674072265625,188.6920623779297,1737.7452392578125,276.1346130371094
265,2,0.49883517622947693,1568.556640625,294.6829833984375,1678.3485107421875,381.7753601074219
265,2,0.41759011149406433,1239.1328125,102.38591766357422,1336.5888671875,188.9903564453125
265,2,0.3995905816555023,1543.5029296875,365.5003967285156,1652.152587890625,466.3100280761719
265,2,0.3206288516521454,1375.7059326171875,0.8036384582519531,1452.6790771484375,61.80200958251953
265,7,0.2768073081970215,1374.3870849609375,0.0,1453.83251953125,65.00935363769531
266,2,0.8889638781547546,300.73712158203125,495.9154357910156,440.2269592285156,594.8778686523438
266,2,0.8579361438751221,1026.1094970703125,177.40699768066406,1114.57763671875,247.4707489013672
266,2,0.7251348495483398,396.54766845703125,443.640380859375,520.4269409179688,536.9595336914062
266,2,0.6055419445037842,0.0,666.3633422851562,141.72120666503906,797.99072265625
266,2,0.5671473145484924,1564.3326416015625,298.2903747558594,1674.0069580078125,382.7067565917969
266,2,0.5545533895492554,1632.0150146484375,192.04376220703125,1733.5484619140625,280.5092468261719
266,7,0.35766324400901794,1242.468017578125,101.21745300292969,1335.832763671875,188.73793029785156
266,7,0.314524382352829,1379.533935546875,0.8497095108032227,1453.1705322265625,60.17288589477539
266,2,0.29832491278648376,1380.09228515625,1.2081413269042969,1452.7017822265625,60.039710998535156
266,7,0.2935875952243805,0.0,553.751220703125,138.744140625,796.3372802734375
266,7,0.27239522337913513,1541.09228515625,365.88079833984375,1647.48828125,472.0650329589844
266,2,0.25885674357414246,1540.6259765625,366.608642578125,1647.598388671875,469.9610595703125
270,2,0.8495942950248718,0.0,653.496337890625,182.77488708496094,781.992431640625
270,2,0.8446213006973267,328.52435302734375,485.3763427734375,468.5068359375,583.87060546875
270,2,0.8285775780677795,1038.7105712890625,171.14768981933594,1125.8453369140625,238.03794860839844
270,2,0.7478698492050171,421.07623291015625,437.43109130859375,545.3006591796875,525.6377563476562
270,2,0.5229042172431946,1620.6328125,205.66827392578125,1723.880859375,292.4469909667969
270,7,0.5017257928848267,1619.489990234375,204.94422912597656,1723.7696533203125,290.7245178222656
270,2,0.44184163212776184,1536.31787109375,370.3127746582031,1640.2001953125,481.2781677246094
270,7,0.4298853278160095,1250.9483642578125,90.58717346191406,1343.3228759765625,176.26699829101562
270,2,0.40870437026023865,0.25485992431640625,558.9338989257812,109.95275115966797,695.3515014648438
270,7,0.338505357503891,0.09981536865234375,554.8419799804688,110.33006286621094,696.8604125976562
270,2,0.28797101974487305,1550.3900146484375,302.3008117675781,1658.8785400390625,396.2573547363281
270,7,0.2864200472831726,1388.745849609375,0.631439208984375,1461.5548095703125,53.34016799926758
273,2,0.8580884337425232,349.21722412109375,479.441650390625,487.9158630371094,577.2147216796875
273,2,0.7317326664924622,1047.568115234375,162.80992126464844,1133.4288330078125,229.8778839111328
273,2,0.7301344275474548,20.57025718688965,639.5489501953125,207.4537811279297,772.3438110351562
273,2,0.6551501750946045,441.8500671386719,428.1170654296875,561.7745361328125,517.3275146484375
273,2,0.5926251411437988,1610.326171875,211.3483428955078,1714.907958984375,302.0097961425781
273,7,0.5146102905273438,0.037021636962890625,549.2188110351562,135.9104461669922,684.6512451171875
273,2,0.4763314425945282,0.0,549.4227905273438,135.49644470214844,684.1561889648438
273,7,0.3569643497467041,1258.4832763671875,83.43743133544922,1347.6741943359375,171.2657012939453
275,2,0.8777879476547241,42.783966064453125,635.4866333007812,230.1604766845703,766.9378662109375
275,2,0.8530253767967224,363.9425354003906,474.5281677246094,500.4619445800781,571.39599609375
275,2,0.7486689686775208,1053.2645263671875,157.41229248046875,1141.340087890625,224.52017211914062
275,2,0.7356021404266357,1606.1683349609375,215.47193908691406,1711.076416015625,307.9163513183594
275,2,0.7014889121055603,451.66607666015625,425.7750549316406,575.0103759765625,513.747314453125
275,2,0.4683340787887573,0.20326995849609375,543.5282592773438,147.41543579101562,679.985595703125
275,2,0.42649316787719727,1261.7138671875,79.2601318359375,1351.257568359375,166.20433044433594
275,2,0.41814902424812317,1522.5938720703125,386.9431457519531,1632.3297119140625,494.10662841796875
275,7,0.2833384871482849,1260.96875,79.61437225341797,1351.055908203125,165.53184509277344
276,2,0.8628989458084106,371.9607238769531,472.3636169433594,506.5401306152344,564.6323852539062
276,2,0.8596412539482117,50.165130615234375,635.3435668945312,240.12213134765625,765.7058715820312
276,2,0.7150633335113525,1599.6827392578125,220.64112854003906,1704.0645751953125,307.61602783203125
276,2,0.6906358599662781,1056.524169921875,153.6654510498047,1144.2811279296875,222.20008850097656
276,2,0.6695619821548462,0.14087677001953125,541.9681396484375,157.98565673828125,678.5022583007812
276,2,0.6669213771820068,465.71240234375,420.42913818359375,581.7454833984375,511.7422790527344
276,2,0.5470965504646301,1520.1175537109375,387.3503723144531,1628.664306640625,498.4627990722656
276,2,0.3270900249481201,1263.18603515625,76.39453125,1355.5030517578125,165.09791564941406
276,7,0.2930344045162201,1264.15771484375,78.36536407470703,1354.7099609375,163.99774169921875
276,2,0.2685549557209015,1523.1368408203125,319.1023254394531,1634.5426025390625,423.4158630371094
277,2,0.8871946334838867,377.16009521484375,469.8260192871094,513.3109130859375,562.6036987304688
277,2,0.8451282978057861,65.57147979736328,630.0264282226562,251.79263305664062,757.65478515625
277,2,0.7600520849227905,467.4418029785156,419.75701904296875,583.683349609375,507.3614501953125
277,2,0.7336927056312561,0.5684280395507812,539.3673095703125,164.2828826904297,674.8457641601562
277,2,0.700886607170105,1596.205810546875,223.5454559326172,1701.598388671875,310.2246398925781
277,2,0.535241425037384,1058.1376953125,151.2867431640625,1146.7532958984375,220.77174377441406
277,7,0.42243340611457825,1264.4345703125,74.83868408203125,1354.323974609375,159.5933074951172
277,7,0.3964109420776367,1517.004150390625,323.99591064453125,1631.0035400390625,499.1023254394531
277,2,0.37363073229789734,1517.384521484375,391.3143310546875,1626.546875,500.64422607421875
278,2,0.8728061318397522,384.73553466796875,468.2038269042969,517.8630981445312,560.5390625
278,2,0.835416316986084,469.66845703125,414.5694580078125,595.307373046875,506.2181396484375
278,2,0.8216670751571655,73.54930114746094,629.2794799804688,257.16192626953125,755.942138671875
278,2,0.7822244763374329,1061.7139892578125,150.58090209960938,1146.024658203125,219.9755859375
278,2,0.7666270732879639,1594.935791015625,227.72781372070312,1698.775634765625,313.88433837890625
278,2,0.6169039607048035,4.932964324951172,539.3889770507812,172.38453674316406,672.8823852539062
278,7,0.5585642457008362,1513.5147705078125,321.945556640625,1630.0716552734375,498.99810791015625
278,7,0.4160701334476471,1265.41748046875,73.6897201538086,1354.782470703125,157.0801544189453
278,2,0.31020012497901917,1404.193359375,0.0,1475.8868408203125,38.72090148925781
279,2,0.871303141117096,86.49581909179688,625.2435302734375,268.4089050292969,749.7821655273438
279,2,0.8239612579345703,392.2574157714844,465.3424072265625,525.2745361328125,558.8457641601562
279,2,0.7352768778800964,478.19073486328125,412.9151916503906,600.0254516601562,503.0955505371094
279,2,0.7347666025161743,1064.71337890625,149.23081970214844,1149.0550537109375,216.55165100097656
279,2,0.5104935169219971,1517.4915771484375,395.6883850097656,1620.51123046875,502.0973815917969
279,2,0.47696149349212646,10.290315628051758,536.650634765625,183.78123474121094,671.0313720703125
279,2,0.41270482540130615,1589.0137939453125,228.65817260742188,1697.0079345703125,316.2019958496094
279,7,0.38046127557754517,1265.249755859375,72.08935546875,1357.6055908203125,154.052490234375
279,7,0.37071987986564636,1589.2635498046875,228.73915100097656,1697.0269775390625,317.9408874511719
279,7,0.34904786944389343,1511.96337890625,324.26763916015625,1627.8218994140625,449.70147705078125
279,2,0.2861233651638031,1265.8712158203125,72.34431457519531,1355.5902099609375,154.28004455566406
281,2,0.8625621795654297,408.1664733886719,459.6500244140625,540.5375366210938,554.42236328125
281,2,0.825589120388031,107.2379150390625,618.6558837890625,287.47222900390625,743.578857421875
281,2,0.8145548701286316,1069.91552734375,143.2239227294922,1153.9217529296875,214.05996704101562
281,2,0.6811231374740601,491.5165100097656,407.1019592285156,616.9093017578125,498.5283508300781
281,2,0.54572993516922,1583.3701171875,232.1212921142578,1690.16162109375,323.1110534667969
281,7,0.5418300628662109,31.87221336364746,531.15087890625,198.10643005371094,666.3875122070312
281,7,0.40768665075302124,1269.2342529296875,66.46403503417969,1359.9359130859375,150.3072052001953
281,2,0.40398356318473816,1511.502685546875,398.81011962890625,1617.920654296875,509.69293212890625
281,2,0.35065755248069763,1267.619384765625,66.30207824707031,1359.046142578125,150.1856231689453
281,2,0.30073994398117065,1407.9031982421875,0.5401296615600586,1480.9681396484375,32.53435134887695
285,2,0.871590256690979,433.11712646484375,449.9149475097656,563.7755126953125,546.3645629882812
285,2,0.8655416369438171,1083.7392578125,135.0101776123047,1166.85498046875,203.51803588867188
285,2,0.8259731531143188,147.27749633789062,608.2745361328125,325.76495361328125,729.1531372070312
285,2,0.7421619892120361,515.2381591796875,405.3335266113281,636.4100341796875,489.2785949707031
285,2,0.6425864100456238,1500.2496337890625,407.1468200683594,1608.52587890625,524.3214721679688
285,7,0.592133104801178,65.70110321044922,516.75439453125,228.06944274902344,653.331298828125
285,2,0.5900951623916626,1571.240234375,242.17190551757812,1677.8369140625,335.55670166015625
285,2,0.4771246314048767,1275.2969970703125,60.799713134765625,1364.111328125,140.8828125
285,7,0.34775033593177795,1275.090087890625,60.95841979980469,1364.98681640625,140.63607788085938
285,7,0.30933642387390137,1487.9949951171875,341.4985656738281,1609.2532958984375,444.6827087402344
287,2,0.8691427707672119,445.27313232421875,447.3708190917969,572.7755126953125,538.2423095703125
287,2,0.8562416434288025,1087.027587890625,133.50709533691406,1170.1248779296875,200.9626007080078
287,2,0.8123195767402649,167.1707305908203,601.6246948242188,340.5739440917969,722.0906982421875
287,2,0.7708383798599243,1497.0521240234375,411.19622802734375,1606.3873291015625,529.2181396484375
287,2,0.6753524541854858,535.9473876953125,397.4118347167969,645.4867553710938,484.5841369628906
287,2,0.5326879024505615,1277.5565185546875,53.842288970947266,1365.885498046875,133.6292266845703
287,2,0.5309475660324097,82.67372131347656,515.6063232421875,240.61074829101562,650.2168579101562
287,2,0.4653772711753845,1560.4991455078125,246.50070190429688,1670.3067626953125,343.6937255859375
287,7,0.45407387614250183,1560.22021484375,247.52207946777344,1669.9256591796875,342.777099609375
287,7,0.3918311893939972,83.72831726074219,513.2246704101562,243.3943634033203,648.5438232421875
287,7,0.31484031677246094,1277.8758544921875,53.98217010498047,1364.9776611328125,134.3792266845703
289,2,0.893707811832428,187.44346618652344,597.6323852539062,357.64886474609375,715.8346557617188
289,2,0.8378865718841553,458.28460693359375,444.76263427734375,586.9588623046875,535.5155639648438
289,2,0.7941948771476746,541.3002319335938,395.7828369140625,654.3322143554688,478.3875732421875
289,2,0.6862342953681946,1492.7098388671875,412.1633605957031,1606.7874755859375,534.9160766601562
289,2,0.674851655960083,1091.26904296875,129.89337158203125,1173.4913330078125,196.62025451660156
