image,cls,conf,x1,y1,x2,y2
000000000009.jpg,45,1.0,1.0799999999999699,187.69008,612.66976,473.53008
000000000009.jpg,45,1.0,311.73024,4.310160000000001,631.01024,232.99032
000000000009.jpg,50,1.0,249.60032000000007,229.27032,565.84032,474.35016
000000000009.jpg,45,1.0,0.0003200000000092018,13.510080000000002,434.48032,388.63007999999996
000000000009.jpg,49,1.0,376.2,40.35996,451.75007999999997,86.88996
000000000009.jpg,49,1.0,465.7797119999999,38.969952,523.849728,85.63996800000001
000000000009.jpg,49,1.0,385.70016000000004,73.65983999999999,469.72,144.16992
000000000009.jpg,49,1.0,364.04959999999994,2.4900960000000016,458.80992,73.559856
000000000025.jpg,23,1.0,385.52992000000006,60.03000299999999,600.50016,357.190137
000000000025.jpg,23,1.0,53.010239999999996,356.490006,185.04032,411.68001
000000000030.jpg,58,1.0,204.86016,31.019727999999994,459.74016,355.13984800000003
000000000030.jpg,75,1.0,237.56032,155.80997600000003,403.96031999999997,351.060152
000000000034.jpg,22,1.0,0.9600000000000009,20.06000000000001,442.19008,399.21015
000000000036.jpg,25,1.0,0.0,50.119679999999995,457.680158,480.46976
000000000036.jpg,0,1.0,167.58015949999998,162.88991999999996,478.19023849999996,628.07968
000000000042.jpg,16,1.0,214.14976,41.29011799999999,562.4096,285.07011800000004
000000000049.jpg,17,1.0,162.5702235,226.55999999999997,292.98004649999996,410.98999999999995
000000000049.jpg,17,1.0,81.6999255,244.94,165.4098165,403.14
000000000049.jpg,0,1.0,203.3898015,260.43,269.0799165,333.46999999999997
000000000049.jpg,0,1.0,118.43004,261.32,175.34001,324.25000000000006
000000000049.jpg,0,1.0,119.34013470000001,334.21,131.2801413,367.78
000000000049.jpg,58,1.0,201.76998000000003,426.19,272.610072,473.42
000000000049.jpg,0,1.0,284.3398428,333.40000000000003,295.2198312,360.83
000000000049.jpg,0,1.0,191.00011964999996,334.37,198.16013835,357.78000000000003
000000000049.jpg,0,1.0,346.76008244999997,333.4,361.56006555,342.62
000000000061.jpg,0,1.0,261.20032,205.92014,309.28031999999996,263.1601
000000000061.jpg,0,1.0,393.39004800000004,210.3401024,425.920032,250.0800896
000000000061.jpg,20,1.0,370.11008,248.899764,453.2,296.539788
000000000061.jpg,20,1.0,223.24991999999997,250.09999999999997,365.16992000000005,327.81009600000004
000000000061.jpg,0,1.0,261.540128,196.57005999999998,295.750112,250.75026000000003
000000000064.jpg,2,1.0,52.360079999999996,387.76992,228.72024,545.38976
000000000064.jpg,7,1.0,52.64016000000001,353.77987200000007,177.22032000000002,413.249888
000000000064.jpg,11,1.0,115.84007999999999,226.58975999999998,152.86007999999998,301.75968
000000000064.jpg,74,1.0,112.04015999999999,42.190079999999995,266.34000000000003,194.49984
000000000071.jpg,2,1.0,467.819712,216.92985000000002,495.56972799999994,231.07986599999998
000000000071.jpg,2,1.0,522.6902719999999,223.40015100000005,547.040288,235.40014499999998
000000000071.jpg,2,1.0,436.90000000000003,217.8298389,460.21999999999997,226.4498211
000000000071.jpg,2,1.0,586.359712,231.3100125,613.509728,245.6199915
000000000071.jpg,6,1.0,47.87040000000001,185.71981200000002,531.30016,305.379804
000000000071.jpg,2,1.0,497.00976,223.9498614,520.56976,235.08984660000002
000000000071.jpg,2,1.0,601.8601600000001,216.63995699999998,618.58016,222.059955
000000000071.jpg,7,1.0,333.480288,192.5999889,357.370272,202.7799831
000000000071.jpg,7,1.0,362.360192,197.28013140000002,386.670208,204.3501126
000000000071.jpg,2,1.0,617.670208,237.43005629999996,640.000192,250.2300357
000000000071.jpg,2,1.0,479.14988800000003,219.9998616,503.079872,232.64984639999994
000000000071.jpg,2,1.0,387.490048,200.7899028,403.500032,205.07989320000001
000000000071.jpg,2,1.0,366.69017599999995,196.9501731,386.390144,204.7601589
000000000071.jpg,2,1.0,348.79027199999996,198.2200791,368.14028800000006,203.33007690000002
000000000071.jpg,2,1.0,499.880096,219.18008850000004,519.060064,225.3901035
000000000071.jpg,2,1.0,460.42016,217.17991199999997,479.22015999999996,228.77989200000002
000000000072.jpg,23,1.0,136.630179,129.44000000000003,425.710033,628.49024
000000000072.jpg,23,1.0,50.45005000000001,72.07008000000002,283.96012399999995,640.0003200000001
000000000073.jpg,3,1.0,12.999802500000024,22.75039999999997,548.9797075,632.42016
000000000073.jpg,3,1.0,1.6599699999999977,3.3200000000000074,270.25984,275.22976
000000000074.jpg,16,1.0,61.87007999999999,276.249711,358.28992,379.429893
000000000074.jpg,1,1.0,2.7497599999999967,3.659978999999989,162.15008,316.059837
000000000074.jpg,0,1.0,295.549664,93.960051,313.969696,152.790225
000000000074.jpg,0,1.0,326.940192,97.0499355,340.49020799999994,122.9799165
000000000074.jpg,0,1.0,356.619872,95.470008,372.329888,147.550212
000000000074.jpg,0,1.0,462.079776,105.09019559999999,493.73974400000003,146.9901924
000000000074.jpg,0,1.0,277.110048,103.839843,292.440032,150.719865
000000000074.jpg,0,1.0,282.649728,103.41003029999999,294.33971199999996,127.66003769999998
000000000077.jpg,0,1.0,216.04,56.30981249999999,319.49,175.2399375
000000000077.jpg,0,1.0,320.73,53.73018749999999,415.36,151.0100625
000000000077.jpg,36,1.0,41.550000000000004,320.34,92.09,344.58
000000000077.jpg,36,1.0,236.62999999999997,140.689875,263.96,169.219875
000000000077.jpg,0,1.0,24.830000000000005,167.52993750000002,121.83000000000001,332.9398125
000000000077.jpg,0,1.0,286.32,101.2899375,311.02,143.0098125
000000000077.jpg,36,1.0,355.43,141.18999375,379.49,156.23000625000003
000000000077.jpg,0,1.0,266.34999999999997,58.179937499999994,289.28,140.6998125
000000000078.jpg,74,1.0,359.799696,2.0697839999999976,573.9299279999999,237.979872
000000000081.jpg,4,1.0,38.54975999999997,40.47997500000001,622.56,358.499825
000000000086.jpg,0,1.0,152.11007999999998,183.09984,281.260032,559.06976
000000000086.jpg,3,1.0,130.139904,346.51968,424.400128,635.15968
000000000086.jpg,26,1.0,265.100032,294.59008000000006,399.700224,404.76992
000000000089.jpg,43,1.0,502.599872,105.46992000000002,528.429888,237.85008
000000000089.jpg,43,1.0,476.62000000000006,127.48992,496.34000000000003,233.59968
000000000089.jpg,43,1.0,528.800192,99.29975999999999,555.2702079999999,237.18984
000000000089.jpg,43,1.0,555.669952,100.89983999999998,576.5399679999999,239.88000000000002
000000000089.jpg,43,1.0,573.729728,96.60024000000001,600.699712,239.39016000000004
000000000089.jpg,69,1.0,138.38016,202.70016,474.59007999999994,472.96992
000000000089.jpg,68,1.0,-0.00012799999999479894,43.669920000000005,118.20019200000002,188.57999999999998
000000000089.jpg,73,1.0,476.68031999999994,333.94991999999996,567.1302400000001,364.30992
000000000089.jpg,73,1.0,497.15999999999997,365.19016799999997,611.20992,398.890152
000000000089.jpg,73,1.0,513.13024,402.70968,640.0,452.82984
000000000092.jpg,42,1.0,418.65024,118.600104,583.32992,427.0
000000000092.jpg,55,1.0,125.70015999999998,0.9598959999999881,501.84032,293.61971800000003
000000000094.jpg,2,1.0,356.230272,275.21979695,399.100288,313.67981505
000000000094.jpg,7,1.0,542.0,263.0001885,624.59968,356.5101995
000000000109.jpg,16,1.0,539.720032,295.4501264,562.630048,313.8401136
000000000109.jpg,0,1.0,512.88976,271.4200528,534.12976,304.1500592
000000000109.jpg,0,1.0,585.8797119999999,268.3499936,604.069728,291.1700064
000000000109.jpg,0,1.0,548.0200416,249.59018240000003,552.5700384,257.7001856
000000000109.jpg,13,1.0,376.599744,261.48984160000003,411.05977600000006,285.2398224
000000000109.jpg,13,1.0,448.370208,281.7698624,488.66019200000005,304.95986560000006
000000000109.jpg,0,1.0,74.5599584,197.84984960000003,80.8499616,213.1298624
000000000109.jpg,0,1.0,604.2600319999999,271.450088,613.4500479999999,282.75010399999996
000000000110.jpg,56,1.0,138.38016000000002,133.50984,237.83999999999997,213.51
000000000110.jpg,56,1.0,243.96032000000002,137.60976000000002,327.79008000000005,256.30992
000000000110.jpg,42,1.0,294.93984,367.89,484.63008,480.00024
000000000110.jpg,43,1.0,274.17980800000004,360.36,291.029792,480.0
000000000110.jpg,53,1.0,136.66016,391.90992,474.35040000000004,474.34992
000000000110.jpg,60,1.0,119.18975999999998,75.29976000000002,263.29984,151.14983999999998
000000000110.jpg,0,1.0,208.18016000000003,-0.000239999999980256,640.0003200000001,474.60984
000000000110.jpg,0,1.0,1.0800000000000054,128.35992,252.39968000000002,409.89
000000000110.jpg,0,1.0,248.08992000000003,1.080000000000001,376.45024,138.07008
000000000110.jpg,0,1.0,196.94976,0.0,264.99968,94.32000000000001
000000000110.jpg,0,1.0,141.19968,2.179919999999995,222.08992,88.00008
000000000110.jpg,0,1.0,-0.00032000000000032003,0.0,130.27999999999997,174.43008
000000000110.jpg,0,1.0,131.149792,0.0,162.219808,55.5
000000000110.jpg,0,1.0,406.76992000000007,1.2200160000000038,441.48992,85.329936
000000000110.jpg,41,1.0,184.03020800000002,79.349952,203.24019200000004,97.579968
000000000110.jpg,56,1.0,0.28003200000000117,134.13984,45.13999999999999,303.50975999999997
000000000110.jpg,56,1.0,413.53996800000004,78.740208,436.429952,91.530192
000000000110.jpg,60,1.0,584.660224,100.540128,640.000256,136.190112
000000000110.jpg,0,1.0,263.059872,0.739992000000001,277.249888,29.399976
000000000110.jpg,0,1.0,335.71999999999997,-4.800000000138027e-05,415.22016,93.43003200000001
000000000110.jpg,60,1.0,3.1497599999999792,377.35992,639.7199999999999,479.99976
000000000110.jpg,41,1.0,163.16009599999998,77.920248,181.860064,101.300232
000000000110.jpg,41,1.0,209.78025599999998,80.59015200000002,229.76022400000002,96.330168
000000000110.jpg,41,1.0,228.12028800000002,75.910008,244.65027200000003,99.289992
000000000113.jpg,56,1.0,92.039792,381.22015999999996,248.809808,444.50016
000000000113.jpg,56,1.0,11.03024,577.5400960000001,82.84016,639.480064
000000000113.jpg,0,1.0,4.329935999999995,31.420160000000017,156.029744,486.49984000000006
000000000113.jpg,41,1.0,70.26988800000001,458.24972800000006,121.869696,519.379712
000000000113.jpg,41,1.0,347.2199328,159.85967999999997,368.89993919999995,178.61967999999996
000000000113.jpg,43,1.0,253.78995200000003,363.24032,301.000128,450.28031999999996
000000000113.jpg,55,1.0,142.37995199999997,424.26976,402.69985599999995,573.83968
000000000113.jpg,0,1.0,341.390192,100.48992000000001,416.00020800000004,428.74015999999995
000000000113.jpg,60,1.0,19.379984000000015,392.93984,415.99979199999996,639.99968
000000000113.jpg,0,1.0,148.130112,44.57984,343.729984,431.45984
000000000113.jpg,41,1.0,282.5600752,95.349728,308.07006879999994,122.11971199999999
000000000113.jpg,41,1.0,346.50008640000004,67.929888,369.9401056,89.979872
000000000113.jpg,41,1.0,343.4299024,98.09008,367.5299056,123.09008
000000000113.jpg,41,1.0,379.90996160000003,96.719904,397.5499424,120.019936
000000000113.jpg,41,1.0,195.72983040000003,140.39983999999998,215.7898496,162.03983999999997
000000000113.jpg,41,1.0,176.1600464,137.139968,199.7300656,161.949952
000000000113.jpg,41,1.0,174.8499168,106.920032,194.4599072,132.550048
000000000113.jpg,41,1.0,140.5701024,138.280032,159.3301216,160.550048
000000000127.jpg,58,1.0,213.55008,49.559835,278.24,120.160053
000000000127.jpg,60,1.0,107.51968000000002,147.13020400000002,639.44992,481.0
000000000127.jpg,41,1.0,381.97024,221.20997600000004,567.1702399999999,345.960212
000000000127.jpg,43,1.0,300.91968,286.33016100000003,405.13984,445.240055
000000000127.jpg,44,1.0,346.67008,276.27990650000004,431.58016000000003,358.5996895
000000000127.jpg,55,1.0,179.14976,263.5699625,305.09984,404.7198935
000000000127.jpg,73,1.0,257.21984000000003,194.1101955,386.28992000000005,286.6300645
000000000127.jpg,13,1.0,-6.399999999739947e-05,148.959928,64.350016,230.909822
000000000127.jpg,13,1.0,157.910176,86.3301686,201.89014400000002,102.7701714
000000000127.jpg,25,1.0,294.0,0.00024050000000024052,398.84992000000005,104.6701695
000000000127.jpg,25,1.0,131.36032,3.1899439000000047,164.08031999999997,58.9200469
000000000127.jpg,26,1.0,111.93984000000003,123.63984749999999,581.89952,286.93982850000003
000000000127.jpg,0,1.0,444.169952,8.670000950000002,466.919968,44.41998925
000000000127.jpg,13,1.0,106.04032000000001,99.0400645,171.04,148.4902315
000000000127.jpg,13,1.0,196.88003199999997,147.35016530000001,249.630048,183.6201627
000000000127.jpg,60,1.0,265.55039999999997,95.15012129999998,479.81023999999996,118.5601027
000000000127.jpg,25,1.0,104.35020800000001,1.489993700000001,132.840192,46.030016499999995
000000000133.jpg,59,1.0,13.990079999999985,2.869920000000006,640.0003200000001,421.52016
000000000133.jpg,77,1.0,525.340192,20.929992,573.290208,49.649976
000000000136.jpg,0,1.0,0.8400000000000005,114.710101,54.379999999999995,372.40993899999995
000000000136.jpg,0,1.0,0.0,61.35002499999998,68.92,374.00018700000004
000000000136.jpg,23,1.0,82.0,116.38001100000001,267.73999999999995,369.060021
000000000136.jpg,23,1.0,316.72,131.82995100000002,444.76000000000005,296.079905
000000000138.jpg,72,1.0,16.660159999999998,102.66985350000002,139.72000000000003,348.7899705
000000000138.jpg,74,1.0,315.62016000000006,19.6000953,384.12000000000006,88.0999533
000000000138.jpg,45,1.0,157.459712,184.11011430000002,203.04972800000002,203.6401317
000000000138.jpg,69,1.0,260.10016,175.12025999999997,379.84992,533.080236
000000000138.jpg,71,1.0,496.76991999999996,203.17975485000002,625.90016,256.69973115
000000000138.jpg,58,1.0,560.6502399999999,45.269865,604.6502399999999,104.05966500000001
000000000138.jpg,75,1.0,218.38,54.989749950000004,252.01999999999998,102.14977004999999
000000000142.jpg,39,1.0,256.71,88.94016,416.77992,342.81024
000000000142.jpg,60,1.0,0.0,226.35999999999996,480.0,452.58016
000000000142.jpg,46,1.0,106.18992000000003,374.53024,378.82991999999996,566.82016
000000000142.jpg,48,1.0,74.57976,376.34016,438.13991999999996,640.0003200000001
000000000143.jpg,14,1.0,426.8799,192.46999999999997,558.0597,368.82
000000000143.jpg,14,1.0,128.1897,104.46,223.9599,271.88
000000000143.jpg,14,1.0,265.5897,126.88,365.5899,289.65000000000003
000000000143.jpg,14,1.0,243.5298,271.01000000000005,340.5198,391.7
000000000143.jpg,14,1.0,114.07980000000002,319.22,206.35980000000004,480.47
000000000143.jpg,14,1.0,35.9601,20.220000000000002,131.4603,153.93
000000000143.jpg,14,1.0,120.17999999999999,237.43000000000004,234.42,371.75
000000000143.jpg,14,1.0,468.71009999999995,320.79,562.9503,475.38000000000005
000000000144.jpg,23,1.0,232.99040000000002,121.70976,599.73024,480.0
000000000144.jpg,23,1.0,193.33024,131.88984,493.99008000000003,479.99976
000000000144.jpg,23,1.0,48.54015999999998,79.82016000000003,442.2502400000001,480.0
000000000149.jpg,0,1.0,388.0302080000001,324.6497914,397.640192,337.9798086
000000000149.jpg,0,1.0,339.42015999999995,316.8101582,346.30016,329.89013780000005
000000000149.jpg,0,1.0,333.21992,315.730143,339.51991999999996,329.680161
000000000149.jpg,0,1.0,401.73993599999994,325.69978239999995,416.439904,338.6597936
000000000149.jpg,33,1.0,434.24016,192.4402062,452.60016,207.4401938
000000000149.jpg,33,1.0,280.60985600000004,252.25994719999997,290.309824,258.6299568
000000000149.jpg,33,1.0,435.83014399999996,82.7299176,446.21017600000005,95.2299144
000000000149.jpg,33,1.0,293.240288,208.2799084,315.690272,218.9899236
000000000149.jpg,0,1.0,559.570016,317.52984019999997,566.669984,336.0398558
000000000149.jpg,0,1.0,538.4501984,315.990153,543.5402015999999,330.710143
000000000149.jpg,2,1.0,278.559936,311.7099818,288.259904,317.03999419999997
000000000149.jpg,2,1.0,311.270208,316.8600844,321.76019199999996,321.59008359999996
000000000149.jpg,2,1.0,295.01968,316.5100874,303.61968,320.6500886
000000000149.jpg,2,1.0,256.34988799999996,321.38010679999996,275.799872,328.5901092
000000000149.jpg,33,1.0,62.67027200000001,340.52001,104.340288,353.90999
000000000149.jpg,33,1.0,384.709856,274.6000278,422.36982399999994,290.5200442
000000000149.jpg,0,1.0,274.32025600000003,326.6099458,282.34022400000003,339.4299582
000000000149.jpg,0,1.0,544.6997984,317.6400502,549.1498016,333.9300298
000000000149.jpg,0,1.0,586.44016,321.2798906,590.96016,331.1598854
000000000149.jpg,0,1.0,249.86992,316.2598144,255.18991999999997,339.2898096
000000000149.jpg,0,1.0,233.569792,315.30011,241.399808,339.580122
000000000149.jpg,0,1.0,220.05968,313.4499088,227.69968000000003,340.65992320000004
000000000151.jpg,0,1.0,434.610072,61.50976,465.17008799999996,114.78976
000000000151.jpg,6,1.0,210.76008000000002,4.600319999999982,480.00024,640.0
000000000151.jpg,11,1.0,212.610072,329.170272,250.73008800000002,364.56028800000007
000000000154.jpg,22,1.0,11.979912000000011,315.59008,361.06009800000004,640.0003200000001
000000000154.jpg,22,1.0,40.459958,192.98016,314.07985,332.15008
000000000154.jpg,22,1.0,239.46010550000003,93.630048,338.65007049999997,157.36003200000002
000000000164.jpg,39,1.0,389.840256,183.919872,397.860224,210.78988800000002
000000000164.jpg,39,1.0,374.39987199999996,189.639792,381.269888,210.569808
000000000164.jpg,39,1.0,367.79020800000006,184.72008000000002,374.840192,212.26008000000002
000000000164.jpg,39,1.0,383.159808,187.56,390.36979199999996,211.79999999999998
000000000164.jpg,39,1.0,433.78976,280.35979199999997,452.10975999999994,311.729808
000000000164.jpg,72,1.0,428.69984,171.06984000000006,525.41984,309.10968
000000000164.jpg,39,1.0,463.10015999999996,282.68020800000005,473.02016000000003,319.230192
000000000164.jpg,39,1.0,399.87023999999997,161.68008,409.27023999999994,178.78008
000000000164.jpg,39,1.0,373.61004799999995,135.799848,384.100032,150.95983199999998
000000000164.jpg,39,1.0,404.560256,132.62004,414.340224,148.37004000000002
000000000164.jpg,39,1.0,415.11020800000006,131.22024,425.76019199999996,148.08023999999997
000000000164.jpg,56,1.0,159.04000000000002,409.15992,310.4,479.99976000000004
000000000164.jpg,40,1.0,153.96003199999998,189.95016,166.79004799999998,218.21016
000000000164.jpg,40,1.0,141.00982399999998,190.75992,157.109856,227.29992000000001
000000000164.jpg,40,1.0,108.420032,196.320168,122.73004799999998,229.720152
000000000164.jpg,40,1.0,58.589856000000005,196.119888,78.24982399999999,233.74987199999998
000000000164.jpg,40,1.0,81.76032,195.45984,97.20032,235.05984
000000000164.jpg,40,1.0,95.88979199999999,196.13004,107.719808,233.06004
000000000164.jpg,41,1.0,146.610016,233.849928,173.38998400000003,254.64991200000003
000000000164.jpg,41,1.0,114.55971199999999,236.809752,137.789728,256.329768
000000000164.jpg,41,1.0,176.770304,232.659792,196.91033599999997,248.78980800000002
000000000164.jpg,41,1.0,196.65011199999998,228.8802,216.64012799999998,244.39020000000002
000000000164.jpg,45,1.0,506.25011200000006,221.49996,562.400128,232.02996000000002
000000000164.jpg,68,1.0,377.71968000000004,227.44992,430.99968,257.80992000000003
000000000164.jpg,69,1.0,274.609824,263.37991200000005,321.42985600000003,297.59992800000003
000000000164.jpg,40,1.0,76.16976,194.990232,87.00975999999999,234.670248
000000000164.jpg,40,1.0,119.179776,191.23008000000002,135.039744,229.15008
000000000164.jpg,40,1.0,133.300192,192.92988,144.050208,228.29988
000000000164.jpg,41,1.0,159.47024000000002,231.63984000000002,181.19024,252.87984
000000000164.jpg,41,1.0,512.82992,134.179752,528.2299200000001,155.55976800000002
000000000164.jpg,41,1.0,532.630272,139.8498,547.820288,153.5598
000000000164.jpg,41,1.0,506.10968,146.680008,512.36968,154.879992
000000000164.jpg,41,1.0,169.77011199999998,203.219808,187.52012800000003,222.069792
000000000164.jpg,41,1.0,133.76976000000002,233.32987200000002,149.08976,253.53988800000002
000000000164.jpg,45,1.0,505.95014399999997,211.57008,535.130176,216.25008
000000000164.jpg,45,1.0,505.140288,219.2398008,562.030272,223.4497992
000000000164.jpg,45,1.0,509.259872,215.430072,561.289888,220.670088
000000000164.jpg,45,1.0,506.830016,212.689968,562.449984,218.75995200000003
000000000164.jpg,45,1.0,362.88032,171.40987199999998,376.24032,180.459888
000000000164.jpg,60,1.0,372.77984000000004,459.11983200000003,509.91967999999997,474.079848
000000000165.jpg,27,1.0,160.70976,173.44986800000004,251.39008,390.6301
000000000165.jpg,0,1.0,248.63008000000002,108.14014399999999,631.8,536.0
000000000165.jpg,0,1.0,6.019839999999981,24.09025199999997,360.13952000000006,528.770164
000000000165.jpg,76,1.0,68.80991999999999,126.15001200000002,368.2,412.25984400000004
000000000192.jpg,0,1.0,349.48,253.48008000000002,481.08,473.52984000000004
000000000192.jpg,0,1.0,437.20959999999997,218.33016000000003,515.6198400000001,466.36008000000004
000000000192.jpg,0,1.0,0.9300160000000002,274.22976,37.46,479.73983999999996
000000000192.jpg,0,1.0,268.11008,179.46,379.45984,415.14000000000004
000000000192.jpg,34,1.0,13.200000000000001,381.39024,49.2,474.37008000000003
000000000194.jpg,43,1.0,504.96032,415.15008000000006,606.37024,480.0
000000000194.jpg,53,1.0,1.080319999999979,40.98984000000003,640.0,473.52984000000004
000000000196.jpg,44,1.0,249.7296,200.54016000000001,460.53984,249.19008
000000000196.jpg,51,1.0,448.17014400000005,363.71988,471.150176,406.22988000000004
000000000196.jpg,51,1.0,391.24006399999996,374.66999999999996,415.860096,428.49
000000000196.jpg,51,1.0,442.269984,375.70003199999996,449.090016,401.73004799999995
000000000196.jpg,51,1.0,412.55017599999996,404.499912,468.530144,435.23992799999996
000000000196.jpg,44,1.0,533.65024,250.15008,607.36992,372.50016
000000000196.jpg,44,1.0,517.81024,213.870048,615.75008,256.96003199999996
000000000196.jpg,44,1.0,230.51999999999998,42.78,301.96,86.21999999999998
000000000196.jpg,44,1.0,546.14976,251.57016,617.8297600000001,332.17992
000000000196.jpg,44,1.0,464.49024000000003,390.80976,586.03008,478.95984
000000000196.jpg,45,1.0,275.9104,58.210080000000005,404.49024000000003,120.97008
000000000196.jpg,45,1.0,423.99008000000003,236.14007999999998,568.87008,349.86024
000000000196.jpg,45,1.0,513.78016,315.38015999999993,640.0003200000001,458.11008000000004
000000000196.jpg,45,1.0,234.68992,197.88,404.09024,284.11008
000000000196.jpg,45,1.0,363.01952,337.26023999999995,524.2598399999999,476.43
000000000196.jpg,45,1.0,332.21984,157.30008,464.90016,226.33992
000000000196.jpg,45,1.0,341.69024,115.73976,492.94016000000005,180.30984
000000000196.jpg,45,1.0,189.83007999999998,72.850128,278.21984,105.920112
000000000196.jpg,45,1.0,361.33024,47.28983999999999,454.32032,110.15975999999999
000000000196.jpg,50,1.0,199.459968,254.34996,217.709952,285.93996000000004
000000000196.jpg,50,1.0,280.50975999999997,393.550008,318.18976,422.449992
000000000196.jpg,50,1.0,170.360256,269.84011200000003,191.900224,298.930128
000000000196.jpg,51,1.0,462.59996800000005,401.479968,488.969952,433.16995199999997
000000000196.jpg,51,1.0,415.03983999999997,417.74980800000003,428.67984,449.49979199999996
000000000196.jpg,60,1.0,0.0,41.940239999999974,640.0,480.00024
000000000196.jpg,42,1.0,210.69984,407.69016,295.48,473.77031999999997
000000000196.jpg,44,1.0,457.60032,121.32012,501.68032000000005,150.33012000000002
000000000196.jpg,45,1.0,115.25984000000001,88.640088,211.38976,127.98007200000002
000000000196.jpg,45,1.0,33.839999999999996,109.71000000000001,151.02015999999998,169.91016
000000000196.jpg,45,1.0,0.00012799999999923983,145.78967999999998,71.349888,219.30984
000000000196.jpg,50,1.0,115.29984,340.830048,155.29984000000002,366.28003200000006
000000000196.jpg,51,1.0,379.310112,413.34000000000003,415.740128,443.34000000000003
000000000196.jpg,51,1.0,577.339776,377.01012,589.519744,392.04012
000000000196.jpg,51,1.0,372.89996800000006,388.960128,404.269952,416.210112
000000000196.jpg,51,1.0,168.75007999999997,359.550048,210.51008,401.32003199999997
000000000196.jpg,51,1.0,420.81971200000004,373.649808,443.209728,396.03979200000003
000000000196.jpg,51,1.0,434.09984,446.58016799999996,454.73984,457.18015199999996
000000000196.jpg,44,1.0,526.70992,129.889872,546.34992,139.179888
000000000196.jpg,50,1.0,250.30006399999996,325.699968,274.720096,346.22995199999997
000000000196.jpg,50,1.0,288.98976,290.27976,306.50976,323.57976
000000000196.jpg,50,1.0,150.979872,262.69008,167.409888,276.61008
000000000196.jpg,45,1.0,0.0,188.89008,172.64,280.90031999999997
000000000201.jpg,31,1.0,333.73984,31.740052000000013,488.58976000000007,394.33993999999996
000000000201.jpg,31,1.0,284.37984,17.329933999999994,430.87008,379.260002
000000000201.jpg,31,1.0,266.08,48.80013199999999,361.18016,343.240164
000000000201.jpg,31,1.0,242.61023999999998,53.190128,328.88032000000004,346.180096
000000000201.jpg,31,1.0,211.54016,46.950102000000015,294.29024,333.820098
000000000201.jpg,0,1.0,615.24992,195.43015,627.72992,212.00017000000003
000000000201.jpg,0,1.0,585.900256,194.44998719999998,597.640224,212.3700048
000000000201.jpg,31,1.0,268.40032,63.33009000000001,362.66016,358.540094
000000000208.jpg,71,1.0,1.080319999999979,108.94032000000001,640.0,475.69008
000000000208.jpg,71,1.0,0.0003200000000092018,150.35976,304.55008,260.11992000000004
000000000208.jpg,79,1.0,157.81024,170.20991999999998,349.57023999999996,259.10015999999996
000000000208.jpg,79,1.0,57.35040000000001,122.17968,215.69024,204.46992
000000000241.jpg,39,1.0,36.10012799999999,553.7996800000001,65.990112,640.0
000000000241.jpg,57,1.0,312.46008,250.92,479.65992,546.93984
000000000241.jpg,57,1.0,0.3299999999999903,278.19007999999997,143.45016,538.6201599999999
000000000241.jpg,0,1.0,132.70007999999999,6.569919999999989,333.13032000000004,632.7401600000001
000000000241.jpg,0,1.0,1.4400000000000013,263.55008,207.09984,611.5999999999999
000000000241.jpg,0,1.0,295.71,263.06016,402.85992000000005,520.21024
000000000241.jpg,41,1.0,103.72008000000001,595.289792,154.44024,639.9998079999999
000000000241.jpg,41,1.0,0.07999199999999873,596.490112,43.420007999999996,640.0001279999999
000000000241.jpg,65,1.0,117.10015199999998,321.70016000000004,161.22016799999997,343.86015999999995
000000000241.jpg,26,1.0,343.93992,469.64,409.25016,543.11008
000000000241.jpg,0,1.0,-2.3999999997359467e-05,372.74016000000006,45.149975999999995,576.1199999999999
000000000241.jpg,0,1.0,395.51016,337.97983999999997,480.00024,568.08992
000000000241.jpg,58,1.0,90.84983999999999,71.11008,200.68967999999998,272.31008
000000000241.jpg,58,1.0,134.44992,350.25984,184.22976,422.52992
000000000247.jpg,2,1.0,55.619839999999996,186.0100932,141.32992000000002,221.5700828
000000000247.jpg,2,1.0,514.32016,179.7700428,549.32016,197.98003720000003
000000000247.jpg,2,1.0,478.50991999999997,175.7998764,509.42992,198.5098676
000000000247.jpg,4,1.0,2.8598399999999558,0.4799680000000093,639.9996799999999,418.750032
000000000247.jpg,2,1.0,544.06992,172.3098052,552.18992,178.4798108
000000000247.jpg,2,1.0,533.6599679999999,171.51012,541.109952,178.11010399999998
000000000247.jpg,4,1.0,420.19968000000006,85.509776,640.0,141.599888
000000000247.jpg,2,1.0,503.749824,169.88017920000001,519.3298560000001,177.5801888
000000000257.jpg,9,1.0,89.29996799999999,197.239752,112.829952,230.019768
000000000257.jpg,9,1.0,50.269984,199.12992,75.359968,222.88992
000000000257.jpg,24,1.0,176.16,362.20991999999995,226.56,417.69984
000000000257.jpg,7,1.0,249.17023999999998,277.95983999999993,454.1104,400.93008
000000000257.jpg,7,1.0,508.44991999999996,304.48008,639.2096,368.35992000000005
000000000257.jpg,0,1.0,139.56992,345.57984000000005,211.08992,480.0
000000000257.jpg,0,1.0,236.73990399999997,326.46024,265.119936,406.18008000000003
000000000257.jpg,0,1.0,211.61968,332.49,233.89968,392.98008
000000000257.jpg,0,1.0,264.09020799999996,330.65015999999997,280.460192,403.53000000000003
000000000257.jpg,0,1.0,287.830112,337.13976,320.980128,414.13992
000000000257.jpg,0,1.0,570.980192,327.79008,585.7302080000001,370.03008
000000000257.jpg,0,1.0,125.189728,325.45012799999995,135.319712,362.48011199999996
000000000257.jpg,0,1.0,316.720128,334.13015999999993,336.89011200000004,408.93
000000000257.jpg,0,1.0,77.650304,326.41008,97.950336,374.58000000000004
000000000257.jpg,0,1.0,138.109792,325.590192,153.659808,364.040208
000000000257.jpg,0,1.0,225.17004799999998,327.33,240.38003200000003,396.87
000000000257.jpg,9,1.0,227.37014399999998,296.50003200000003,238.67017599999997,307.89004800000004
000000000257.jpg,9,1.0,27.5800224,303.10020000000003,33.2700256,310.2102
000000000257.jpg,9,1.0,28.930000000000003,276.6,34.75,288.36
000000000257.jpg,24,1.0,208.46966400000002,340.870152,219.769696,360.450168
000000000257.jpg,26,1.0,306.740192,360.15996,319.25020800000004,373.92996
000000000257.jpg,0,1.0,190.829952,330.599952,211.459968,370.36996800000003
000000000257.jpg,7,1.0,519.96,323.80992,640.0003200000001,480.0
000000000257.jpg,7,1.0,55.23967999999999,301.10999999999996,196.46975999999998,360.95016
000000000257.jpg,7,1.0,473.609984,320.43012,498.39001600000006,334.38012
000000000257.jpg,9,1.0,89.930112,177.969888,104.96012800000001,192.61987200000002
000000000257.jpg,26,1.0,93.12975999999999,344.24016,99.00976,356.72016
000000000257.jpg,0,1.0,537.15968,328.859928,551.23968,368.679912
000000000257.jpg,9,1.0,301.98012800000004,260.82007200000004,309.070112,275.000088
000000000257.jpg,9,1.0,295.59987839999997,261.400152,301.9898816,273.600168
000000000257.jpg,9,1.0,55.4,299.1700008,60.279999999999994,303.4699992
000000000257.jpg,26,1.0,208.910208,341.47996800000004,220.12019199999997,370.529952
000000000257.jpg,26,1.0,472.59975999999995,340.8798408,478.73976,345.47983919999996
000000000260.jpg,5,1.0,2.259999999999998,93.77013600000002,68.4,251.630118
000000000260.jpg,0,1.0,261.0,139.8801465,312.75,309.3801435
000000000260.jpg,0,1.0,17.29,142.1600976,40.96,170.0100864
000000000260.jpg,2,1.0,238.42999999999998,175.2500412,271.58,190.9800288
000000000260.jpg,28,1.0,332.28000000000003,232.1601075,375.73,293.8799925
000000000260.jpg,28,1.0,373.94,222.9899535,402.28999999999996,292.7098305
000000000260.jpg,28,1.0,334.72,205.56989099999998,395.49999999999994,245.52989100000002
000000000263.jpg,20,1.0,156.41021849999998,169.33024000000003,591.0002955,632.8304
000000000263.jpg,20,1.0,1.659823499999995,13.299839999999996,388.98999449999997,605.0899200000001
000000000283.jpg,39,1.0,63.18029000000001,42.58015999999998,145.58013400000002,354.32992
000000000283.jpg,56,1.0,0.2299644000000019,142.60992000000002,59.7900164,228.96
000000000283.jpg,56,1.0,148.65017799999998,67.01984000000002,428.000214,356.0496
000000000283.jpg,60,1.0,0.0,210.82016000000004,424.65988799999997,630.96032
000000000283.jpg,40,1.0,164.760098,156.23968000000002,253.020118,370.45984000000004
000000000294.jpg,0,1.0,27.69984000000001,69.82987199999998,392.60992,427.0
000000000294.jpg,44,1.0,415.56995200000006,349.85002430000003,430.87996799999996,373.4000137
000000000294.jpg,68,1.0,507.59999999999997,312.8097385,639.05984,422.1998795
000000000294.jpg,42,1.0,608.509952,251.82980444999998,616.179968,292.57982355
000000000294.jpg,43,1.0,445.72988799999996,329.04995759999997,463.059872,363.7199664
000000000294.jpg,43,1.0,454.369888,320.6900235,470.259872,365.86021850000003
000000000294.jpg,44,1.0,401.48998400000005,323.2899411,424.590016,348.6099309
000000000294.jpg,44,1.0,383.890016,341.85993625,419.46998399999995,381.89993975
000000000294.jpg,44,1.0,402.190272,111.6701075,416.66028800000004,226.3302825
000000000294.jpg,44,1.0,420.95027200000004,114.400132,434.38028799999995,217.67008199999998
000000000294.jpg,44,1.0,328.98988799999995,256.4798985,347.159872,323.4100135
000000000294.jpg,43,1.0,461.60015999999996,335.52013915,477.88016,368.80013485
000000000294.jpg,43,1.0,466.520032,325.2398366,480.310048,357.73983139999996
000000000294.jpg,43,1.0,469.28016,335.37982695,484.60015999999996,368.56981105
000000000294.jpg,74,1.0,0.14998400000000078,0.0,53.869983999999995,53.959990000000005
000000000294.jpg,44,1.0,403.99011200000007,367.62012035,436.180128,388.73010365
000000000294.jpg,44,1.0,392.560096,299.36007115,409.100064,331.71006085
000000000294.jpg,44,1.0,388.560128,387.14981935000003,403.29011199999997,410.11981465
000000000294.jpg,44,1.0,401.36,355.24010934999995,422.96,380.38011865
000000000294.jpg,44,1.0,623.2299616,50.48995315,628.0199584000001,73.05993484999999
000000000307.jpg,16,1.0,406.30048,197.82000000000005,577.94016,365.58
000000000307.jpg,2,1.0,384.000064,49.379808000000004,432.220096,65.949792
000000000307.jpg,29,1.0,351.64,366.73992,421.75008,473.52984000000004
000000000308.jpg,0,1.0,134.68,28.64999100000001,268.39968000000005,424.09002899999996
000000000308.jpg,0,1.0,0.0,47.30985600000002,185.08032,426.0
000000000308.jpg,0,1.0,45.739839999999994,15.340046999999988,208.71008,281.230077
000000000308.jpg,0,1.0,111.18019199999999,78.759945,145.690208,166.55982300000002
000000000308.jpg,0,1.0,381.08992,23.469830999999985,556.8902400000001,419.439813
000000000308.jpg,40,1.0,364.50012799999996,223.930095,388.950112,283.710249
000000000308.jpg,40,1.0,146.339936,156.05019000000001,195.999904,255.360162
000000000308.jpg,40,1.0,235.400288,149.479992,260.250272,208.060104
000000000308.jpg,0,1.0,-6.400000000184036e-05,236.449809,119.660096,421.209843
000000000308.jpg,40,1.0,0.029951999999999757,170.459853,67.580032,297.64002300000004
000000000308.jpg,0,1.0,345.79996800000004,73.100109,395.68995200000006,249.38018699999998
000000000308.jpg,74,1.0,436.2402880000001,237.86994390000004,449.330272,250.9599441
000000000308.jpg,25,1.0,276.23968,63.14022899999999,363.84992000000005,137.700027
000000000309.jpg,77,1.0,153.1803,213.24990000000003,287.7501,426.2697
000000000309.jpg,77,1.0,273.70980000000003,214.37969999999999,391.0098,355.9599
000000000309.jpg,16,1.0,420.1497,71.45009999999999,512.9798999999999,195.0999
000000000309.jpg,77,1.0,73.1001,235.3299,194.5203,493.34970000000004
000000000312.jpg,20,1.0,2.8800000000000026,185.18990000000002,229.32992,392.45997000000006
000000000312.jpg,20,1.0,225.82976000000002,193.9799085,434.67967999999996,374.9198775
000000000312.jpg,20,1.0,322.22015999999996,294.569793,403.13023999999996,375.739931
000000000312.jpg,20,1.0,491.40991999999994,176.26987,640.0,375.67972399999996
000000000312.jpg,20,1.0,469.93996799999996,230.670097,513.949952,372.399937
000000000312.jpg,20,1.0,419.33984000000004,249.43994949999998,567.06016,372.0901485
000000000315.jpg,25,1.0,13.470080000000006,95.2199325,225.58016000000003,227.90975550000002
000000000315.jpg,25,1.0,142.00992,116.7701955,295.54015999999996,206.01020649999998
000000000315.jpg,25,1.0,202.90976,111.75017,331.30976,182.860188
000000000315.jpg,25,1.0,280.63008,131.29983125,348.44,172.88984475
000000000315.jpg,25,1.0,281.03968000000003,114.62018645,370.18976000000004,135.19018555
000000000315.jpg,25,1.0,375.26003199999997,134.41996295,425.010048,159.13997505
000000000315.jpg,25,1.0,423.91014400000006,42.74013800000001,462.130176,132.609974
000000000315.jpg,25,1.0,0.0,96.66020350000001,159.53024,357.45002650000004
000000000315.jpg,25,1.0,-0.00012800000000368073,137.2200795,78.680192,247.55986850000002
000000000315.jpg,25,1.0,130.49984,117.06994950000002,254.27967999999998,220.6998605
000000000315.jpg,25,1.0,227.25983999999997,130.179917,316.52,197.92005099999997
000000000315.jpg,0,1.0,338.69024,139.269893,400.53024,331.89984100000004
000000000315.jpg,0,1.0,493.479968,148.66004999999998,542.569952,333.370002
000000000315.jpg,0,1.0,124.4896,219.590301,209.77983999999998,392.690123
000000000315.jpg,0,1.0,532.23008,186.9497805,578.5500800000001,243.0298255
000000000315.jpg,0,1.0,542.179936,159.8301138,566.399904,202.4401022
000000000315.jpg,0,1.0,575.4099520000001,195.2600545,625.599968,242.7599615
000000000315.jpg,0,1.0,546.969888,139.88014005000002,560.859872,174.01012195
000000000315.jpg,25,1.0,325.7798399999999,130.6999176,409.77984,170.5699324
000000000315.jpg,26,1.0,93.060288,388.4599621,152.83027199999998,421.6999479
000000000315.jpg,56,1.0,203.41983999999997,275.39002050000005,495.12991999999997,405.89018749999997
000000000315.jpg,0,1.0,216.269696,220.78013649999997,267.489664,244.11013549999998
000000000315.jpg,0,1.0,300.729952,182.05006225,327.159968,215.34004975000002
000000000315.jpg,0,1.0,587.2797216,155.77004835,593.0697183999999,168.72006165
000000000315.jpg,0,1.0,183.79008,369.109902,302.78016,427.0
000000000315.jpg,0,1.0,325.409952,172.6300366,340.559968,209.0900294
000000000315.jpg,56,1.0,208.08032,249.07998849999998,292.95008,295.4901915
000000000315.jpg,56,1.0,16.630079999999996,249.30010700000003,156.08032,358.63004099999995
000000000315.jpg,56,1.0,3.3298559999999977,401.49001654999995,104.25017600000001,421.45000345
000000000315.jpg,56,1.0,222.0,265.39012885,294.91008,295.23012715000004
000000000315.jpg,56,1.0,0.0,323.200143,63.340031999999994,407.600109
000000000315.jpg,56,1.0,222.20979200000002,245.04012014999998,282.519808,264.58010985
000000000315.jpg,56,1.0,233.04992,290.7399019,309.72,309.90989609999997
000000000315.jpg,56,1.0,211.049824,223.8000513,274.269856,248.9000507
000000000315.jpg,0,1.0,623.02976,162.54995435,630.54976,188.54994165
000000000315.jpg,25,1.0,464.18016,106.25993210000001,530.7702400000001,138.6399399
000000000315.jpg,26,1.0,102.670112,358.5701756,144.06012800000002,370.34017439999997
000000000315.jpg,26,1.0,116.309728,327.06000950000004,180.039712,389.2299285
000000000321.jpg,52,1.0,363.67040000000003,199.72008,612.14016,440.28024
000000000321.jpg,52,1.0,370.45024,62.11992000000002,605.36032,304.93992000000003
000000000321.jpg,48,1.0,78.54975999999999,43.64016000000001,294.22976,422.65008
000000000322.jpg,0,1.0,71.66016,110.47992800000003,277.96032,386.269936
000000000322.jpg,29,1.0,282.10992,205.97976035,325.34992,218.72977165
000000000326.jpg,0,1.0,152.56992,90.68006850000002,517.24,426.45023750000007
000000000326.jpg,40,1.0,231.68992000000003,34.86988750000001,478.58975999999996,298.9800625
000000000328.jpg,67,1.0,434.749728,283.15005185,469.75971200000004,301.79003215
000000000328.jpg,0,1.0,44.809599999999996,68.08991600000002,268.60992,424.99978
000000000328.jpg,0,1.0,197.90976,90.5200235,403.04,479.8599465
000000000328.jpg,0,1.0,336.87039999999996,58.479818500000015,586.78016,484.5200275
000000000328.jpg,13,1.0,0.6003199999999964,104.75976,588.27008,479.499798
000000000328.jpg,73,1.0,245.6496,220.9500491,332.08992,258.3700429
000000000328.jpg,2,1.0,350.46016,77.3101595,451.48032,142.92003449999999
000000000328.jpg,27,1.0,462.059712,177.54017445000002,480.36972799999995,221.35018955
000000000328.jpg,27,1.0,315.370176,171.710065,337.87014400000004,229.690291
000000000328.jpg,24,1.0,12.029759999999996,171.3602275,131.48,250.99011649999997
000000000328.jpg,24,1.0,49.450239999999994,160.8501761,134.73023999999998,208.6901719
000000000332.jpg,41,1.0,88.44991999999999,0.0,262.11008,71.94
000000000332.jpg,41,1.0,587.380256,0.0,640.0002240000001,149.4
000000000332.jpg,45,1.0,3.2396799999999715,37.74983999999999,640.0,474.60984
000000000332.jpg,51,1.0,168.28,80.19024,478.8700799999999,330.92015999999995
000000000332.jpg,41,1.0,393.6096,0.039888000000001256,514.14976,52.750128
000000000332.jpg,42,1.0,0.0,325.40015999999997,24.940032,471.27023999999994
000000000332.jpg,51,1.0,59.789760000000015,262.95024,167.83008,378.3
000000000338.jpg,72,1.0,217.5904,149.73984000000002,313.37023999999997,327.0
000000000338.jpg,74,1.0,458.17008,88.68993735,481.41008,113.29992465000001
000000000338.jpg,0,1.0,326.99968000000007,142.070055,417.45984,325.770153
000000000338.jpg,0,1.0,439.349792,173.72005799999997,496.2598079999999,327.0
000000000338.jpg,69,1.0,24.250239999999998,243.95982150000003,163.13024,322.5899145
000000000338.jpg,26,1.0,465.150176,231.65007,490.8101439999999,270.990132
000000000349.jpg,6,1.0,0.0003200000000092018,130.52016,539.33024,388.30992000000003
000000000349.jpg,58,1.0,396.4,280.26984,459.28,358.63991999999996
000000000349.jpg,58,1.0,454.920032,270.70008,505.510048,333.33000000000004
000000000349.jpg,58,1.0,498.329792,284.910072,527.039808,324.830088
000000000357.jpg,34,1.0,539.08992,121.40005799999999,543.08992,148.64003
000000000357.jpg,35,1.0,566.960032,186.4399111,575.870048,193.1299169
000000000357.jpg,35,1.0,76.74028799999999,97.1600167,83.710272,106.3700153
000000000357.jpg,35,1.0,279.47992,25.029953400000004,284.93992,29.7499586
000000000357.jpg,0,1.0,372.18972799999995,25.029997000000005,389.439712,52.659971
000000000357.jpg,0,1.0,271.099936,18.399963,298.119904,55.560024999999996
000000000357.jpg,0,1.0,209.34032000000002,22.609869999999997,231.54032,53.619934
000000000357.jpg,0,1.0,74.61980799999999,79.120048,93.14979199999999,127.19994799999999
000000000357.jpg,0,1.0,530.8297600000001,136.209997,559.86976,190.800031
000000000357.jpg,0,1.0,567.6100799999999,160.019848,594.37008,198.049948
000000000357.jpg,0,1.0,592.3703360000001,154.710131,619.550304,201.310029
000000000357.jpg,0,1.0,556.029728,23.959965800000003,569.919712,33.629966200000005
000000000357.jpg,0,1.0,545.1897280000001,21.040051999999996,554.839712,47.200052
000000000357.jpg,0,1.0,596.84992,8.210010800000001,605.80992,18.3600036
000000000357.jpg,0,1.0,265.329728,6.4299754,283.019712,33.7700094
000000000357.jpg,0,1.0,568.150112,29.270097000000003,580.020128,53.010079
000000000357.jpg,0,1.0,580.99008,32.189989,587.7100800000001,56.110039
000000000359.jpg,9,1.0,153.87,100.439794,219.23999999999998,134.68991
000000000359.jpg,9,1.0,243.76,99.9399846,294.76000000000005,122.33999139999999
000000000359.jpg,9,1.0,278.48,293.480115,282.94,297.590109
000000000359.jpg,2,1.0,0.0,290.11006599999996,123.72,327.690142
000000000360.jpg,0,1.0,261.02,138.75988125,313.12,175.70986875000003
000000000360.jpg,0,1.0,97.99,273.39013125,124.59,294.80011875
000000000360.jpg,31,1.0,240.44999999999996,155.01,292.63999999999993,196.5
000000000368.jpg,32,1.0,207.190248,238.220192,254.63023199999998,287.930208
000000000368.jpg,0,1.0,165.30983999999998,107.61984000000001,394.92983999999996,379.93984
000000000368.jpg,0,1.0,157.79999999999998,81.30016,211.53984,190.8304
000000000368.jpg,0,1.0,64.14,198.369952,121.16016,233.999968
000000000368.jpg,0,1.0,135.57,148.46976,175.10999999999999,230.91968000000003
000000000368.jpg,0,1.0,270.709848,71.75008,307.76983199999995,153.8
000000000368.jpg,0,1.0,424.640208,138.6304,468.750192,237.34016
000000000368.jpg,0,1.0,285.14976,122.08,361.72992000000005,360.30976000000004
000000000368.jpg,0,1.0,362.619768,137.29984000000002,399.799752,235.37984
000000000368.jpg,0,1.0,80.88000000000001,136.64992,109.92,202.90976
000000000368.jpg,0,1.0,65.02991999999999,138.05023999999997,83.86992,201.81023999999996
000000000368.jpg,0,1.0,214.14,120.25990399999999,234.06,149.91993599999998
000000000368.jpg,0,1.0,2.39999999990248e-05,137.82016000000002,18.760008000000003,230.76992
000000000370.jpg,0,1.0,90.80999999999997,24.50015999999998,480.00024,640.0003200000001
000000000370.jpg,50,1.0,242.44992,257.0502399999999,480.0,501.00032
000000000382.jpg,0,1.0,507.709792,363.06023999999996,561.179808,444.34007999999994
000000000382.jpg,30,1.0,492.71008,432.709848,570.44,457.769832
000000000382.jpg,24,1.0,517.710272,365.610048,534.9002879999999,388.660032
000000000384.jpg,57,1.0,-0.00022299999999403353,419.70016,182.49985499999997,637.9702399999999
000000000384.jpg,74,1.0,205.87021040000002,275.860032,234.13019759999997,303.930048
000000000384.jpg,73,1.0,154.6601559,542.4002879999999,196.81014410000003,559.970272
000000000384.jpg,73,1.0,107.9798335,536.750112,149.0098265,560.860128
000000000384.jpg,64,1.0,100.97986350000001,464.680032,113.01985649999999,474.31004799999994
000000000384.jpg,65,1.0,365.0301049,496.98015999999996,386.2800871,504.10015999999996
000000000384.jpg,73,1.0,116.039834,522.139904,161.05996599999997,543.239936
000000000384.jpg,65,1.0,155.3797992,530.4699519999999,186.5898088,537.099968
000000000384.jpg,65,1.0,148.13009150000002,544.1997984,158.51007249999998,549.8098016
000000000384.jpg,73,1.0,160.389851,509.790208,192.629853,526.440192
000000000384.jpg,63,1.0,123.39015930000001,468.86032,162.46016070000002,488.18032000000005
000000000387.jpg,63,1.0,249.16992,50.699760000000005,624.54016,327.90984
000000000387.jpg,63,1.0,152.37983999999997,50.29008,623.24,362.67024
000000000387.jpg,67,1.0,332.50016000000005,111.88031999999998,542.50016,205.63008
000000000389.jpg,27,1.0,306.65024,300.72984,372.08,479.99976
000000000389.jpg,0,1.0,0.00032000000000032003,256.72008,141.30016,478.92024
000000000389.jpg,0,1.0,467.34016,292.19016,565.05024,480.00024
000000000389.jpg,0,1.0,91.30015999999999,249.63023999999996,182.99999999999997,420.25008
000000000389.jpg,0,1.0,566.9401600000001,270.66984,640.0,395.55
000000000389.jpg,0,1.0,41.339968,172.709928,55.409983999999994,217.02991199999997
000000000389.jpg,0,1.0,170.840192,285.240048,218.83020799999997,332.59003199999995
000000000389.jpg,0,1.0,429.70012800000006,257.18999999999994,473.03011200000003,305.37
000000000389.jpg,0,1.0,394.45984000000004,242.34016800000003,427.01984000000004,269.020152
000000000389.jpg,0,1.0,562.50016,371.80992,639.73984,479.83968000000004
000000000389.jpg,24,1.0,385.90015999999997,266.44992,463.03040000000004,480.0
000000000389.jpg,0,1.0,140.9904,84.04968000000001,509.06015999999994,473.64984
000000000389.jpg,0,1.0,517.460288,269.93987999999996,525.870272,279.56988
000000000389.jpg,0,1.0,516.91008,269.97,590.70976,415.95
000000000394.jpg,16,1.0,0.0,16.1698095,625.80992,588.5601085
000000000394.jpg,29,1.0,235.34976000000003,185.4498035,590.8198400000001,477.43998250000004
000000000395.jpg,67,1.0,291.15008,289.290254,310.99008000000003,312.260226
000000000395.jpg,0,1.0,118.61024000000003,138.16006,551.33024,573.4802199999999
000000000395.jpg,0,1.0,-0.00012799999999479894,207.32013,80.81011199999999,486.24039
000000000395.jpg,0,1.0,77.02016,270.91974000000005,159.56992,475.57970000000006
000000000395.jpg,0,1.0,515.21024,200.2798,640.0,580.0
000000000395.jpg,67,1.0,619.050112,305.739808,634.880128,317.32983199999995
000000000395.jpg,0,1.0,108.58022399999999,232.53995099999997,147.440256,279.439969
000000000395.jpg,0,1.0,140.76032,239.81985000000003,222.88,349.30007000000006
000000000395.jpg,0,1.0,412.440096,194.77009,445.380064,300.74014999999997
000000000395.jpg,0,1.0,428.93001599999997,206.73984,472.829984,319.88971999999995
000000000395.jpg,0,1.0,159.799872,332.18978,220.189888,399.16006
000000000395.jpg,0,1.0,54.699712,214.92016,103.089728,341.86012
000000000395.jpg,0,1.0,448.16032,253.08010000000002,518.95008,342.73998000000006
000000000397.jpg,56,1.0,477.94016000000005,0.0,621.41984,98.06016
000000000397.jpg,53,1.0,4.310080000000021,44.220000000000006,635.33024,456.27024
000000000397.jpg,41,1.0,-3.1999999998699735e-05,294.56976,36.749984,366.44976
000000000397.jpg,41,1.0,479.99968,315.42984,630.8598400000001,473.76984
000000000397.jpg,42,1.0,595.23984,404.53008,639.99984,456.63023999999996
000000000397.jpg,60,1.0,1.2499199999999888,349.08984000000004,504.94016,479.99976000000004
000000000397.jpg,0,1.0,3.7401599999999924,-0.00024000000000690136,229.40032000000002,205.32984
000000000400.jpg,16,1.0,417.499863,148.97024,515.119605,227.74016
000000000400.jpg,8,1.0,1.440285000000015,64.71968000000001,638.000319,542.2
000000000404.jpg,8,1.0,54.27005699999999,359.69984,368.459967,446.15999999999997
000000000404.jpg,8,1.0,192.140058,359.96016,391.30017,405.92016
000000000404.jpg,8,1.0,252.28997999999996,354.080128,409.36981199999997,383.69011199999994
000000000404.jpg,8,1.0,263.29015200000003,357.89008,349.06014000000005,374.17008000000004
000000000404.jpg,8,1.0,272.71003440000004,355.56009600000004,297.41002560000004,366.580064
000000000415.jpg,38,1.0,60.129987,399.08972800000004,102.099959,443.499712
000000000415.jpg,0,1.0,-0.00017950000000516164,257.44032,122.9598335,559.06016
000000000419.jpg,0,1.0,124.84,130.16976,170.03999999999996,282.99984
000000000419.jpg,38,1.0,140.800224,118.93000800000002,178.90025599999998,135.34999200000001
000000000419.jpg,32,1.0,124.230144,91.389792,130.77017600000002,98.57980800000001
000000000419.jpg,0,1.0,458.52,228.82992000000002,589.5299200000001,404.94000000000005
000000000419.jpg,2,1.0,434.22,202.49004000000002,448.82,216.86004
000000000419.jpg,2,1.0,529.320288,203.300208,545.690272,214.290192
000000000419.jpg,2,1.0,329.94003200000003,202.720152,363.290048,214.44016799999997
000000000428.jpg,27,1.0,374.55967999999996,200.49012,469.20992,355.01004
000000000428.jpg,0,1.0,226.93984,32.65019999999999,582.85984,355.92012
000000000428.jpg,55,1.0,405.40959999999995,234.7299,580.53984,356.34978
000000000431.jpg,32,1.0,359.09017600000004,194.15983895,371.270144,205.79984705
000000000431.jpg,0,1.0,153.74976,67.12019950000001,311.04,319.5901465
000000000431.jpg,38,1.0,296.7904,158.950068,378.06016,221.039914
000000000436.jpg,0,1.0,7.210108499999999,2.8800000000000026,427.00021350000003,628.46976
000000000436.jpg,54,1.0,219.7198955,237.32032,323.1499705,309.85024
000000000438.jpg,54,1.0,189.41984000000002,272.23008000000004,336.8598400000001,376.63008
000000000438.jpg,54,1.0,37.6304,226.44000000000003,158.29024,303.91008000000005
000000000438.jpg,54,1.0,168.86976,212.10984,315.80992,320.23992
000000000438.jpg,54,1.0,178.85023999999999,142.30007999999998,318.92,248.17032
000000000438.jpg,54,1.0,58.949760000000005,160.37016,180.03008,254.75016
000000000438.jpg,54,1.0,50.56,101.95008,176.16,186.91008
000000000438.jpg,54,1.0,480.0,197.38992,600.81024,312.80976
000000000438.jpg,54,1.0,472.06976,101.97984000000001,594.14976,203.85984
000000000438.jpg,54,1.0,36.579840000000004,322.45008,191.34976,442.16015999999996
000000000438.jpg,54,1.0,478.21984,310.74984,611.4096,455.18999999999994
000000000438.jpg,54,1.0,321.09024,332.28000000000003,491.67008000000004,456.26016
000000000438.jpg,54,1.0,168.30975999999998,362.80992000000003,334.12992,453.81983999999994
000000000438.jpg,54,1.0,310.09984,151.93992000000003,394.99967999999996,341.23992
000000000443.jpg,15,1.0,198.61983999999995,53.279999999999994,571.03008,433.96992
000000000443.jpg,0,1.0,117.57024000000001,1.0797600000000074,637.48,473.52984000000004
000000000443.jpg,0,1.0,488.62976000000003,2.160000000000002,640.0,305.25984
000000000443.jpg,65,1.0,500.59008000000006,194.87016,640.0,347.45016000000004
000000000443.jpg,57,1.0,1.0803200000000146,1.900080000000015,569.93024,472.14024
000000000443.jpg,0,1.0,2.3699199999999987,152.68992,145.77984,464.40000000000003
000000000446.jpg,0,1.0,75.71016000000002,124.17023999999998,358.11,640.0
000000000446.jpg,65,1.0,334.85004000000004,367.080032,379.34004000000004,385.670048
000000000446.jpg,73,1.0,259.67995200000007,402.10976000000005,269.809968,472.31967999999995
000000000446.jpg,73,1.0,70.349832,170.569952,77.569848,186.27996800000003
000000000446.jpg,73,1.0,31.859976,164.28,41.119991999999996,193.16
000000000446.jpg,73,1.0,26.979983999999998,164.21027199999997,35.379984,193.520288
000000000446.jpg,73,1.0,37.3302,164.59024,65.7402,194.79024000000004
000000000446.jpg,73,1.0,12.919919999999998,98.90979200000001,107.17991999999998,144.859808
000000000446.jpg,73,1.0,82.610208,63.579872,96.42019199999999,92.409888
000000000446.jpg,57,1.0,1.659887999999996,495.94016,89.53012799999999,630.24992
000000000446.jpg,58,1.0,415.24992,276.53984,473.66975999999994,361.32
000000000446.jpg,58,1.0,374.40984000000003,221.09024000000002,436.91976,319.79040000000003
000000000446.jpg,58,1.0,426.64007999999995,177.70015999999998,480.0002399999999,281.57024
000000000450.jpg,40,1.0,461.70016000000004,3.230016000000002,559.64,73.179936
000000000450.jpg,41,1.0,562.0198399999999,-0.00024000000000690136,640.0,192.96984
000000000450.jpg,53,1.0,0.0,13.739760000000025,566.41024,471.83976
000000000450.jpg,60,1.0,0.0,1.0800000000000143,640.0,480.0
000000000459.jpg,27,1.0,162.569928,278.98976,224.19993600000004,518.79968
000000000459.jpg,0,1.0,0.00025800000000741896,84.84991999999998,514.8800219999999,632.8102399999999
000000000471.jpg,5,1.0,120.89984000000001,112.26982899999996,580.5299200000001,324.32998499999997
000000000471.jpg,0,1.0,211.029728,155.13977500000001,227.23971199999997,200.119955
000000000472.jpg,4,1.0,394.86016,56.67989600000001,482.0704,88.14
000000000474.jpg,0,1.0,3.369793500000001,42.70000000000002,332.5799205,471.90999999999997
000000000474.jpg,35,1.0,9.859963500000003,234.5,98.2697985,305.80999999999995
000000000486.jpg,72,1.0,391.66016,175.8998745,454.70016,285.75971549999997
000000000486.jpg,69,1.0,392.04992000000004,274.9198935,640.0,426.99978649999997
000000000486.jpg,39,1.0,623.899776,233.26986515000002,639.9197439999999,271.43986485000005
000000000486.jpg,43,1.0,223.64976,192.28023500000003,230.56975999999997,244.240157
000000000486.jpg,39,1.0,498.81996799999996,278.459937,521.869952,303.76993500000003
000000000486.jpg,39,1.0,83.05984000000001,219.1699195,88.17984000000001,248.2499005
000000000486.jpg,43,1.0,235.42024,200.87021535,239.32024,217.40019664999997
000000000486.jpg,45,1.0,252.42976,299.840254,383.81984,388.060162
000000000488.jpg,32,1.0,431.12028799999996,252.620102,439.410272,260.200122
000000000488.jpg,0,1.0,180.76032,210.29988,285.39008,341.32988400000005
000000000488.jpg,0,1.0,112.24032000000001,245.319816,239.24,356.079864
000000000488.jpg,34,1.0,214.909888,225.80014799999998,278.359872,271.730116
000000000488.jpg,35,1.0,218.97011200000003,274.81003200000004,243.12012799999997,295.30003999999997
000000000488.jpg,35,1.0,562.509984,253.32008660000002,573.0100160000001,261.31008540000005
000000000488.jpg,0,1.0,209.300128,197.88988100000003,234.71011199999998,268.63984700000003
000000000488.jpg,0,1.0,546.3202879999999,216.449968,590.450272,265.709948
000000000488.jpg,0,1.0,34.670080000000006,208.01998699999996,125.90976,360.380013
000000000488.jpg,0,1.0,224.36024,181.8601687,228.78024,189.87018329999998
000000000490.jpg,16,1.0,46.0,192.99975750000002,136.0,335.9998125
000000000490.jpg,36,1.0,304.79,136.81973250000004,396.0,388.2099375
000000000491.jpg,77,1.0,134.44000000000003,11.270034500000015,395.63000000000005,308.8701215
000000000491.jpg,77,1.0,287.78999999999996,0.7701364999999927,487.36,156.2200215
000000000491.jpg,77,1.0,0.0,4.880139500000011,91.86999999999999,186.17005250000003
000000000491.jpg,77,1.0,79.46999999999998,0.9100475000000023,292.73,120.92019450000001
000000000502.jpg,21,1.0,226.95999999999998,87.9997895,500.09024,345.7399785
000000000510.jpg,0,1.0,254.04992,130.26984,405.40991999999994,428.64984
000000000510.jpg,13,1.0,42.06976000000001,226.52015999999998,609.44,428.22
000000000510.jpg,9,1.0,15.099999999999998,9.710015999999998,51.78,66.879936
000000000514.jpg,59,1.0,37.39013999999998,225.88991999999996,360.00018,624.27968
000000000520.jpg,14,1.0,300.039808,140.73016800000002,332.04979199999997,160.990152
000000000520.jpg,14,1.0,230.029888,131.18992799999998,264.19987199999997,145.149912
000000000520.jpg,0,1.0,242.019968,307.83988800000003,257.229952,342.109872
000000000520.jpg,14,1.0,449.26016000000004,217.6002,467.82016,235.3902
000000000520.jpg,14,1.0,0.10998399999999853,187.56,23.330016,203.04
000000000520.jpg,14,1.0,444.380128,174.05980799999998,466.350112,190.149792
000000000520.jpg,14,1.0,599.289888,178.810008,618.9398719999999,189.229992
000000000520.jpg,14,1.0,97.32969600000001,194.510088,133.149664,217.35007199999998
000000000520.jpg,14,1.0,155.500256,184.440192,181.000224,196.310208
000000000520.jpg,0,1.0,453.080224,316.95012,470.940256,335.82012000000003
000000000520.jpg,0,1.0,508.04985600000003,323.60983200000004,516.149824,337.309848
000000000529.jpg,3,1.0,17.659866,238.86975999999999,379.860054,587.4099199999999
000000000529.jpg,0,1.0,108.50005949999998,76.35999999999999,337.84987249999995,487.0
000000000529.jpg,0,1.0,25.5301165,97.90016,297.83015149999994,294.01024
000000000531.jpg,1,1.0,48.859967999999995,268.79988000000003,74.209984,285.62988
000000000531.jpg,0,1.0,262.689888,248.31023999999996,302.099872,337.5
000000000531.jpg,1,1.0,18.590016,271.11996000000005,43.780032000000006,286.68996
000000000531.jpg,0,1.0,82.869952,256.13976,120.539968,321.78984
000000000531.jpg,0,1.0,251.649856,253.239912,263.90982399999996,279.539928
000000000531.jpg,32,1.0,270.75,294.6,272.61,297.35999999999996
000000000531.jpg,0,1.0,216.169792,255.010032,226.79980799999998,278.82004800000004
000000000531.jpg,0,1.0,446.84976,246.329832,459.68976000000004,281.749848
000000000531.jpg,0,1.0,504.059712,244.480248,516.769728,276.38023200000003
000000000531.jpg,38,1.0,294.45027200000004,290.379768,309.200288,322.159752
000000000531.jpg,0,1.0,389.499968,256.36984800000005,401.589952,277.229832
000000000531.jpg,0,1.0,6.459999999999999,258.440112,28.909984,294.250128
000000000531.jpg,38,1.0,28.679936,254.549928,96.710016,290.22991199999996
000000000531.jpg,38,1.0,253.0599616,269.03988000000004,257.3899584,273.26988
000000000531.jpg,1,1.0,628.660288,266.11999199999997,639.1502720000001,275.680008
000000000532.jpg,5,1.0,86.29024000000001,127.09992000000003,547.96,389.21016000000003
000000000532.jpg,0,1.0,269.08976,234.56976,313.60976,390.82992
000000000532.jpg,0,1.0,124.32009599999999,253.47984000000002,169.98006399999997,367.5
000000000532.jpg,0,1.0,221.33971200000002,212.82996000000003,239.329728,231.21996000000001
000000000532.jpg,0,1.0,154.41027200000002,216.46984799999998,166.68028800000002,236.129832
000000000532.jpg,5,1.0,0.34009600000000084,163.50000000000003,97.12985599999999,353.50992
000000000532.jpg,26,1.0,153.12998399999998,268.63015199999995,174.23001599999998,304.170168
000000000532.jpg,26,1.0,120.389824,316.920168,135.489856,342.28015200000004
000000000536.jpg,56,1.0,288.41008,138.97984799999998,444.74012799999997,334.51000799999997
000000000536.jpg,0,1.0,292.86006399999997,133.949928,448.000224,332.219832
000000000536.jpg,0,1.0,169.41008,79.52011200000001,277.830112,335.140176
000000000536.jpg,0,1.0,88.33999999999999,68.57995199999998,186.499936,332.100048
000000000536.jpg,26,1.0,22.099996800000003,258.039936,66.14999999999999,336.0
000000000536.jpg,26,1.0,202.070176,185.97986399999996,271.550048,249.19994400000002
000000000536.jpg,26,1.0,343.77974399999994,235.3201032,389.34985600000005,247.6200888
000000000536.jpg,67,1.0,206.4299552,106.5498504,220.1099488,127.68986160000001
000000000536.jpg,67,1.0,98.62005439999999,87.68003999999999,127.5500576,127.030008
000000000536.jpg,56,1.0,0.6800192000000012,141.91010400000002,83.15995519999998,336.00016800000003
000000000536.jpg,67,1.0,361.3499904,224.6500872,369.3899776,237.12008880000002
000000000540.jpg,2,1.0,172.31987200000003,366.28994750000004,182.229888,375.8399525
000000000540.jpg,2,1.0,611.08992,309.6501975,620.6899199999999,320.5602025
000000000540.jpg,2,1.0,162.40016,394.2801075,177.88016000000002,404.39009250000004
000000000540.jpg,2,1.0,218.02016000000003,329.7601775,228.34015999999997,339.42017250000004
000000000540.jpg,4,1.0,156.37984,187.79985,456.65952000000004,270.3
000000000540.jpg,7,1.0,87.57024,359.97019750000004,109.41024,384.8202025
000000000540.jpg,9,1.0,253.6697216,146.62984924999998,255.4797184,148.55985075
000000000540.jpg,2,1.0,71.74016,404.25003375,85.18016,413.75001625
000000000540.jpg,2,1.0,94.32000000000001,391.490025,106.96,402.37002500000006
000000000540.jpg,2,1.0,131.93008,372.34005625,140.13008000000002,381.53004375
000000000540.jpg,2,1.0,121.599904,364.67998375,131.619936,374.17996625
000000000540.jpg,2,1.0,194.58032000000003,368.12989999999996,203.10032,377.98990000000003
000000000540.jpg,2,1.0,311.5502816,199.5101725,316.2602784,205.6601775
000000000540.jpg,2,1.0,52.359967999999995,191.960005,59.759968,198.019995
000000000540.jpg,2,1.0,218.06992000000002,348.95982875000004,229.38992,361.74982124999997
000000000540.jpg,5,1.0,416.86982400000005,203.86997125,440.289856,214.19997874999999
000000000540.jpg,7,1.0,329.47977599999996,192.45984750000002,340.579744,206.0898525
000000000540.jpg,2,1.0,291.4402016,182.33020625,297.1101984,186.76019375
000000000540.jpg,5,1.0,452.82982400000003,385.57999624999997,466.24985599999997,405.43000375
000000000540.jpg,7,1.0,93.440096,392.25003125,105.50006400000001,402.80001875
000000000542.jpg,4,1.0,3.260159999999992,4.3499500000000175,640.0,325.199842
000000000542.jpg,0,1.0,222.66016000000002,189.730178,291.65024000000005,375.81027
000000000542.jpg,0,1.0,149.13980800000002,209.98993400000003,197.509792,375.13993
000000000542.jpg,0,1.0,452.45984,195.779694,492.69984,355.659898
000000000542.jpg,0,1.0,356.159776,211.38990399999997,403.499744,345.210096
000000000542.jpg,0,1.0,317.69007999999997,211.329888,357.89007999999995,343.97976800000004
000000000542.jpg,0,1.0,296.019968,206.36985600000003,329.469952,349.029824
000000000542.jpg,0,1.0,185.30998400000001,212.23012800000004,229.41001599999998,348.0202
000000000542.jpg,0,1.0,454.7401919999999,130.38016199999998,497.810208,224.840022
000000000542.jpg,0,1.0,267.72,118.00984799999999,335.11008000000004,194.38988799999998
000000000542.jpg,0,1.0,278.489952,214.25010199999997,309.23996800000003,350.120034
000000000542.jpg,26,1.0,180.359808,277.73023520000004,198.129792,305.96021279999997
000000000542.jpg,26,1.0,189.920128,265.5997916,208.170112,291.88980039999996
000000000542.jpg,27,1.0,466.9299616,224.52024319999998,468.15995840000005,234.6602368
000000000542.jpg,26,1.0,483.32976,262.5397984,503.52976,292.49978560000005
000000000542.jpg,0,1.0,441.1202559999999,127.42021160000002,460.820224,153.6802124
000000000542.jpg,0,1.0,281.509696,219.21013399999998,296.169664,294.090258
000000000544.jpg,32,1.0,596.5702080000001,293.77986435,610.380192,301.21986965
000000000544.jpg,0,1.0,253.31968,243.72989199999998,366.54976,404.930078
000000000544.jpg,0,1.0,107.47008000000001,301.2999535,237.00992,412.6098865
000000000544.jpg,0,1.0,25.529919999999997,269.2898985,127.19968,412.07997950000004
000000000544.jpg,0,1.0,76.23024,191.66001749999998,105.07024,236.43993449999996
000000000544.jpg,0,1.0,247.290208,185.4399085,276.460192,235.44972149999998
000000000544.jpg,0,1.0,193.14,209.98000415,223.17999999999998,237.51001785000003
000000000544.jpg,0,1.0,148.91011200000003,193.7000527,180.06012800000002,235.68004529999996
000000000544.jpg,0,1.0,0.06998400000000071,221.16977400000002,33.549984,299.069946
000000000544.jpg,0,1.0,544.810016,211.75008995,566.549984,232.75007804999998
000000000544.jpg,34,1.0,223.139744,300.7902009,275.879776,308.3902031
000000000544.jpg,35,1.0,218.389792,324.92012035,238.659808,355.50010965
000000000544.jpg,0,1.0,20.460031999999995,237.09004199999995,63.180032,296.53015
000000000544.jpg,0,1.0,174.27993600000002,213.9899398,193.179904,238.8999242
000000000544.jpg,0,1.0,18.770016,194.86998999999997,44.410016,240.50006399999998
000000000544.jpg,0,1.0,512.3099520000001,203.12989935000002,528.699968,232.84991065
000000000560.jpg,58,1.0,54.399829999999994,126.179976,109.71988999999999,188.520072
000000000560.jpg,71,1.0,79.87992000000001,194.83978800000003,194.01972,260.45994
000000000560.jpg,67,1.0,160.879917,188.1201036,171.379923,193.9600884
000000000560.jpg,71,1.0,219.439849,152.45997,249.199871,156.839982
000000000560.jpg,61,1.0,303.989942,143.980044,343.909938,180.53989199999998
000000000562.jpg,79,1.0,139.72007250000001,159.84032,218.32996950000003,278.53024
000000000562.jpg,79,1.0,188.5698045,57.49024,266.9698935,279.48
000000000562.jpg,79,1.0,63.279954000000004,81.54016,146.699784,264.1904
000000000562.jpg,41,1.0,63.00013949999999,77.44959999999999,372.2600924999999,604.33984
000000000564.jpg,0,1.0,230.51002,335.29984,377.98981999999995,614.49984
000000000564.jpg,0,1.0,430.78022,203.67967999999996,520.00026,297.57984
000000000564.jpg,38,1.0,296.88984,432.809856,402.36976000000004,473.629824
000000000564.jpg,56,1.0,62.900006,234.390112,106.359994,256.660128
000000000564.jpg,56,1.0,108.71021200000001,232.00000000000003,154.290188,257.44
000000000564.jpg,56,1.0,202.820228,230.33017599999997,250.320252,256.350144
000000000564.jpg,56,1.0,245.15998000000002,307.81007999999997,301.71986000000004,336.09008000000006
000000000564.jpg,56,1.0,135.729932,258.530048,185.85990800000002,288.780032
000000000564.jpg,56,1.0,88.78987,256.369888,139.24989,282.179872
000000000564.jpg,56,1.0,39.440232,260.52992,86.360248,284.20992
000000000564.jpg,56,1.0,13.519974000000001,235.62032,61.259978000000004,258.06032
000000000564.jpg,56,1.0,412.26016000000004,304.209696,473.76992,350.749664
000000000564.jpg,56,1.0,325.819988,279.269888,377.350012,300.879872
000000000564.jpg,56,1.0,303.389918,307.559872,354.769922,334.8298879999999
000000000564.jpg,56,1.0,233.05983999999998,228.6,299.52,306.00991999999997
000000000564.jpg,56,1.0,152.80015400000002,232.509888,201.510166,274.039872
000000000569.jpg,0,1.0,88.10016000000002,269.14007999999995,168.28,414.52007999999995
000000000569.jpg,33,1.0,188.630272,205.84996800000002,218.700288,236.99995199999998
000000000569.jpg,33,1.0,170.119936,216.94008,186.77990400000002,249.52007999999998
000000000569.jpg,33,1.0,145.500192,229.27992,168.490208,252.97991999999996
000000000569.jpg,33,1.0,134.91017599999998,239.769888,160.570144,263.059872
000000000572.jpg,0,1.0,139.78015800000003,58.22015999999998,285.089966,599.9904
000000000572.jpg,0,1.0,70.739809,254.79968000000002,199.59986899999998,601.0697600000001
000000000572.jpg,28,1.0,289.2799035,378.91040000000004,426.9997865,600.69024
000000000575.jpg,15,1.0,4.390079999999976,39.6997875,358.10975999999994,394.51982849999996
000000000581.jpg,16,1.0,104.250146,151.32,261.130056,410.42999999999995
000000000584.jpg,44,1.0,5.760319999999979,1.4399225999999987,343.49024,70.5200826
000000000584.jpg,50,1.0,312.140064,275.2599,374.960096,326.83998
000000000584.jpg,50,1.0,199.70016,193.479828,393.65024,301.459752
000000000584.jpg,51,1.0,354.82976,318.75024,446.0496,400.94012399999997
000000000584.jpg,51,1.0,447.13983999999994,253.52005499999999,528.6400000000001,331.009881
000000000584.jpg,51,1.0,465.08992,189.439857,539.26976,267.63002700000004
000000000584.jpg,51,1.0,512.16,245.48015700000002,579.21024,321.87005100000005
000000000584.jpg,51,1.0,232.119712,142.3099647,269.829728,178.2899673
000000000584.jpg,51,1.0,233.07999999999998,51.859962,306.77024000000006,117.780054
000000000584.jpg,45,1.0,0.0,14.360033999999995,640.0,418.34009399999997
000000000584.jpg,51,1.0,196.35008,170.879889,282.38016000000005,248.75993099999997
000000000584.jpg,51,1.0,135.3696,194.43023399999998,202.09983999999997,263.76003000000003
000000000584.jpg,51,1.0,379.089792,43.699932000000004,437.799808,88.130028
000000000584.jpg,51,1.0,357.56,187.20996,413.0,242.009748
000000000589.jpg,29,1.0,463.860192,229.40999999999997,482.61020800000006,235.71
000000000589.jpg,0,1.0,347.91040000000004,184.57031999999998,493.34015999999997,368.86008
000000000590.jpg,71,1.0,75.87011350000002,295.01,161.0701305,306.58
000000000590.jpg,45,1.0,72.99995600000001,292.99,165.86995000000002,320.59
000000000595.jpg,62,1.0,368.07008,296.98968,509.06016,408.90984
000000000597.jpg,20,1.0,337.929888,167.8500208,378.69987199999997,191.31002719999998
000000000597.jpg,20,1.0,383.53983999999997,148.450072,452.65984000000003,191.470136
000000000597.jpg,20,1.0,467.92992,149.900128,540.8099199999999,193.24011199999998
000000000597.jpg,20,1.0,196.38976,142.72003200000003,271.6896,190.09993599999999
000000000597.jpg,20,1.0,134.390016,154.579888,193.929984,189.16993599999998
000000000597.jpg,20,1.0,89.529888,162.19014,124.37987199999998,188.330084
000000000597.jpg,20,1.0,1.6699839999999977,154.92994000000002,56.839968,188.370012
000000000599.jpg,58,1.0,528.37024,5.480255000000002,639.70016,242.74009100000004
000000000599.jpg,15,1.0,0.920000000000023,37.129999499999975,413.41983999999997,402.8801425
000000000599.jpg,57,1.0,0.0003199999999736747,1.829872,619.6502399999999,402.729756
000000000599.jpg,65,1.0,439.00991999999997,198.1900745,618.27008,285.9901495
000000000599.jpg,65,1.0,389.57984000000005,167.2898205,587.57984,227.7899635
000000000605.jpg,60,1.0,0.0,2.3500800000000055,640.0,480.0
000000000605.jpg,41,1.0,290.80992000000003,123.77976000000001,515.67968,298.91976
000000000605.jpg,44,1.0,260.529888,203.58024000000003,319.45987199999996,301.61016
000000000605.jpg,41,1.0,409.8896,30.19991999999999,552.26976,172.57992000000002
000000000612.jpg,59,1.0,117.84031999999999,235.14,543.78016,475.14
000000000612.jpg,77,1.0,320.4,271.38984000000005,391.47968,359.09976
000000000612.jpg,77,1.0,260.31968,281.72016,322.31968,362.82
000000000612.jpg,77,1.0,268.68,249.82008000000002,392.66016,358.26024
000000000612.jpg,77,1.0,355.44992,218.98991999999998,428.93024,299.09999999999997
000000000612.jpg,77,1.0,423.219968,247.70999999999998,457.629952,285.81
000000000612.jpg,77,1.0,180.8896,189.88992,284.25984,286.48992
000000000612.jpg,77,1.0,328.16988799999996,242.37984,371.339872,260.01984000000004
000000000612.jpg,77,1.0,390.42976000000004,254.00976000000003,448.42976,320.24976
000000000612.jpg,77,1.0,402.65984000000003,285.78,541.18016,389.48016
000000000612.jpg,77,1.0,337.350048,178.43016000000003,387.240032,236.02008
000000000620.jpg,72,1.0,243.05976000000004,2.8803200000000118,479.99976000000004,585.3500799999999
000000000620.jpg,53,1.0,96.63,252.93952000000002,318.23015999999996,398.17984
000000000623.jpg,13,1.0,271.29,72.62,375.0,311.0
000000000623.jpg,77,1.0,1.1199375000000011,31.459999999999987,356.1800625,494.38
000000000623.jpg,56,1.0,273.6200625,62.92,373.2399375,302.76000000000005
000000000623.jpg,0,1.0,162.33993750000002,1.2999999999999956,374.0300625,492.21000000000004
000000000625.jpg,0,1.0,404.0,204.119705,524.0,418.11987100000005
000000000625.jpg,0,1.0,271.99999999999994,152.950125,372.99968,423.94998300000003
000000000625.jpg,0,1.0,185.41984,233.51980199999997,277.75968,419.939774
000000000625.jpg,29,1.0,272.52979200000004,111.9201766,306.279808,133.5501954
000000000626.jpg,74,1.0,312.52016000000003,124.360032,353.84016,166.830048
000000000626.jpg,74,1.0,396.15008,129.710112,417.03008,176.620128
000000000629.jpg,3,1.0,320.97024000000005,257.1199715,567.72992,414.22992450000004
000000000634.jpg,0,1.0,57.52992349999999,264.62976000000003,348.0398005,474.60992000000005
000000000634.jpg,36,1.0,154.93993899999998,446.419712,316.08973899999995,500.489728
000000000634.jpg,0,1.0,149.4301872,16.320032,171.1101728,47.090016000000006
000000000634.jpg,0,1.0,338.65007049999997,0.13996800000000142,427.00021350000003,114.93996800000002
000000000634.jpg,0,1.0,176.88011705,17.100032,197.89009695,41.260031999999995
000000000634.jpg,0,1.0,78.13982575,38.48,103.69983225,67.059968
000000000636.jpg,61,1.0,80.71992,89.37024000000001,345.95016,625.5904
000000000641.jpg,1,1.0,115.45011199999999,237.730246,141.520128,297.69005
000000000641.jpg,1,1.0,565.2498879999999,265.01988980000004,582.739872,286.8398862
000000000641.jpg,5,1.0,142.34976,100.02980600000002,559.76992,328.92977
000000000641.jpg,0,1.0,578.289792,233.5200742,589.479808,246.60005380000004
000000000641.jpg,0,1.0,565.239936,240.92010859999996,582.699904,275.3001074
000000000641.jpg,0,1.0,596.870176,232.87995740000002,606.610144,246.09997860000001
000000000641.jpg,0,1.0,555.690112,231.63019740000001,562.7201279999999,254.4802186
000000000641.jpg,0,1.0,463.67967999999996,225.6199218,468.71968000000004,251.93991019999999
000000000641.jpg,0,1.0,606.6097279999999,231.8900362,613.739712,246.34004379999996
000000000641.jpg,0,1.0,26.909984,207.5499758,56.30000000000001,230.5499682
000000000641.jpg,0,1.0,3.8199680000000003,209.8999954,24.219968,232.86001260000003
000000000641.jpg,0,1.0,0.0,220.9699158,6.32,239.90990019999998
000000000643.jpg,62,1.0,105.92999999999999,169.32993750000003,316.23999999999995,368.0398125
000000000643.jpg,39,1.0,66.9,252.62006250000002,113.46,368.1699375
000000000643.jpg,73,1.0,358.28,122.30006249999998,364.08000000000004,169.6501875
000000000643.jpg,73,1.0,403.21000000000004,116.24981249999999,451.22,179.40993749999998
000000000643.jpg,73,1.0,332.17,123.1599375,338.4,171.41006249999998
000000000643.jpg,73,1.0,337.67,122.8299375,342.78,171.7100625
000000000643.jpg,73,1.0,342.93,124.54012499999999,349.34999999999997,171.790125
000000000643.jpg,73,1.0,332.31,256.330125,361.65999999999997,313.33012499999995
000000000643.jpg,73,1.0,347.25,121.83993750000002,356.03999999999996,170.7500625
000000000643.jpg,73,1.0,331.55999999999995,122.42999999999999,403.61,171.39000000000001
000000000643.jpg,73,1.0,290.72999999999996,338.76013125000003,412.92,370.79011875
000000000643.jpg,77,1.0,192.97,3.219937499999999,241.21,56.3600625
000000000643.jpg,45,1.0,154.34,72.12999375,194.86,95.96000625
000000000643.jpg,64,1.0,98.39,357.09,134.47,374.82
000000000643.jpg,73,1.0,87.59,90.60013124999999,142.35,95.87011875
000000000643.jpg,73,1.0,86.26,94.92013125,141.82,100.19011875000001
000000000643.jpg,73,1.0,88.63,100.36987500000001,142.35999999999999,105.109875
000000000643.jpg,77,1.0,385.45,34.08,425.31,89.25
000000000643.jpg,73,1.0,88.9,104.99986874999999,142.62,110.19988125
000000000643.jpg,39,1.0,205.87,47.7301875,233.04999999999998,113.8700625
000000000650.jpg,15,1.0,179.97984000000002,110.19012549999998,484.8496,354.4601725
000000000650.jpg,2,1.0,2.379840000000044,279.529999,639.99968,421.370005
