idx,x1,y1,x2,y2
0,52.95177427504882,88.76004808125703,470.9517742750488,421.760048081257
0,158.97021844247246,43.541315258114935,289.97021844247246,166.54131525811493
1,270.6101795283825,1.411140491786739,378.6101795283825,176.41114049178674
1,57.78552179813103,0.2513066793671044,164.78552179813101,149.2513066793671
2,137.27720102280816,3.2302018113927033,370.2772010228082,198.2302018113927
2,164.79043636606445,66.47972095770481,317.79043636606445,236.4797209577048
2,359.89261672566795,0.7802915284546756,478.89261672566795,111.78029152845468
3,8.380635039388494,-1.0421354687551059,316.3806350393885,259.9578645312449
3,39.76303017465739,99.58175405532376,120.76303017465739,413.58175405532376
3,136.88134018532892,36.72898529308934,168.88134018532892,109.72898529308934
3,180.08858857112088,36.35248473962163,216.08858857112088,104.35248473962163
3,95.88089803131386,39.49343400974517,122.88089803131386,103.49343400974517
4,157.33266497689897,198.7792155828726,230.33266497689897,239.7792155828726
4,47.01826702442541,201.64480275280306,94.01826702442541,237.64480275280306
5,101.97616977488536,62.20668211451826,473.97616977488536,258.20668211451823
6,120.29737762167636,1.0552629051800224,203.29737762167636,35.05526290518002
6,117.97567227207279,38.61712306497196,273.97567227207276,121.61712306497196
6,205.26268057105244,72.9101165001513,394.26268057105244,235.9101165001513
6,20.408040237361035,3.5683374469496982,496.40804023736104,189.5683374469497
6,-0.17184363896421928,187.7074158064508,498.8281563610358,282.7074158064508
7,47.35846725021898,156.34616292359902,450.35846725021895,281.346162923599
8,271.07969409963863,169.6590345316039,386.07969409963863,233.6590345316039
8,294.8770012562393,188.7692051766104,327.8770012562393,230.7692051766104
8,205.88527431824318,175.65370458754413,255.88527431824318,235.65370458754413
8,121.81623995826732,162.42353961046607,197.81623995826732,330.42353961046604
8,457.3928167914423,212.52004101088724,500.3928167914423,297.5200410108872
8,437.46207888548565,172.5819316363332,499.46207888548565,242.5819316363332
8,351.5995824880155,271.65485534043154,452.5995824880155,374.65485534043154
8,264.3412991189275,249.26055603555795,352.3412991189275,363.26055603555795
8,189.92543236353484,259.1991440936803,286.9254323635348,374.1991440936803
8,147.78674401384018,224.8892834353599,400.7867440138402,331.8892834353599
8,53.778328977015846,189.15415894472864,83.77832897701585,214.15415894472864
8,357.81774578312917,186.67647645405714,468.81774578312917,357.67647645405714
9,41.16699212930487,40.14806257043847,451.16699212930484,340.14806257043847
10,51.71564383423606,2.822012452576871,497.71564383423606,375.82201245257687
11,2.7467528290352448,33.93628304765517,344.74675282903524,337.93628304765514
12,-2.0035032558434693,8.436303269365993,435.9964967441565,499.436303269366
13,180.0648567331797,260.1248441269484,213.0648567331797,293.1248441269484
13,367.00980826599266,243.96357399376762,447.00980826599266,352.9635739937676
13,255.36489456235785,247.06598370385808,371.36489456235785,375.0659837038581
14,43.78528962053622,178.45983476248654,384.7852896205362,335.45983476248654
15,-0.951444718299598,3.0906371703541424,393.0485552817004,377.09063717035417
16,71.92278100031831,13.971060619625547,307.9227810003183,489.9710606196255
17,392.25555713880766,2.9786636184125754,479.25555713880766,94.97866361841258
17,306.0390404457709,178.77520173724156,411.0390404457709,280.77520173724156
17,326.82123195989504,195.13632562605898,471.82123195989504,329.136325626059
17,144.06119880270484,163.41468510732247,321.06119880270484,247.41468510732247
17,0.45206039187816316,173.41508243414964,144.45206039187815,317.41508243414967
18,250.8517257142048,162.05349516944997,286.8517257142048,271.05349516945
19,-1.527680234425901,-0.6732433582953945,497.47231976557407,373.3267566417046
19,99.17547654200331,124.56595466135255,419.1754765420033,375.5659546613525
20,101.10809978582279,202.86883768521363,181.1080997858228,273.86883768521363
21,120.82071288871776,11.199653435184302,334.82071288871776,223.1996534351843
21,100.60012303504004,175.14954333006494,427.60012303504004,356.14954333006494
22,156.29576403323333,47.101161692367384,287.29576403323335,337.1011616923674
23,215.2102507067869,182.22358030177637,377.2102507067869,240.22358030177637
24,294.0694169567071,70.40766305515001,421.0694169567071,197.40766305515
24,39.09932770157977,97.50144023254626,442.0993277015798,377.50144023254626
24,227.41837211366362,89.89868892768612,337.4183721136636,364.8986889276861
25,83.36752774126839,72.86275004223967,386.3675277412684,318.86275004223967
25,323.3475209324295,1.3243582384405101,393.3475209324295,116.32435823844051
26,9.918503580662303,32.220406864133025,498.91850358066233,378.220406864133
26,3.027699225856196,87.12495484545587,363.02769922585617,377.1249548454559
26,91.81042743670747,172.61805131872148,211.81042743670747,356.6180513187215
27,186.04782045105236,118.41655556818105,333.04782045105236,179.41655556818105
28,430.78740455966476,104.83377761639892,473.78740455966476,251.83377761639892
28,39.308269600016594,112.18247303334942,81.30826960001659,263.1824730333494
28,2.3128701312672035,253.9881411962033,501.31287013126723,373.9881411962033
29,95.06682312018819,8.385830516183859,501.0668231201882,332.3858305161839
29,41.79270524322556,166.69976169072683,74.79270524322556,222.69976169072683
30,112.84442243502491,72.46208305988026,497.8444224350249,330.46208305988023
30,92.97452387423856,158.85085397236415,104.97452387423856,187.85085397236415
30,35.52864247611693,102.09492789708128,128.52864247611694,335.0949278970813
31,370.4522507637622,105.07431327871986,417.4522507637622,122.07431327871986
31,392.6368467349115,110.82692667096276,500.6368467349115,176.82692667096276
31,1.0654290769619479,252.18823912947653,500.06542907696195,332.18823912947653
31,129.63521529906947,81.02835688951845,236.63521529906947,250.02835688951845
31,102.11403050797585,24.760595022675275,212.11403050797585,213.76059502267526
32,145.9554983852606,113.59913516666435,357.9554983852606,287.5991351666644
32,185.60959354691113,57.5074802700243,287.6095935469111,242.5074802700243
33,0.9209130427133516,154.69348584413888,56.92091304271335,230.69348584413888
34,244.0266559032582,225.35449277081602,275.0266559032582,261.354492770816
35,39.4786744747078,194.18581226852052,111.4786744747078,295.1858122685205
36,46.142289296997376,17.121642986700635,493.1422892969974,497.12164298670064
37,7.733301779008457,108.31555038630913,502.73330177900846,344.31555038630916
37,200.2195979827603,125.11253516481335,302.2195979827603,347.1125351648134
38,49.111675471674346,76.78334391673093,426.11167547167435,321.7833439167309
39,256.2657144012202,64.78183594049,302.2657144012202,104.78183594049
39,158.91277794258582,43.61912668859259,464.9127779425858,272.6191266885926
40,158.96177619153838,118.3601921356632,441.9617761915384,202.3601921356632
41,44.07123846118134,61.835972425136674,394.07123846118134,377.8359724251367
42,254.34320953148705,81.78545440477819,306.34320953148705,116.78545440477819
42,49.853259820713305,56.11443548970047,385.85325982071333,296.11443548970044
43,198.93027292144893,151.9236063343343,331.93027292144893,182.9236063343343
43,68.10908828446782,185.22695222451284,94.10908828446782,215.22695222451284
43,23.012271624539622,180.01126534699273,55.01227162453962,250.01126534699273
43,56.30144593792795,193.56467501665747,150.30144593792795,254.56467501665747
44,250.55672942582532,56.397973179682054,442.5567294258253,245.39797317968205
45,105.03887904928695,126.56016190156114,325.03887904928695,203.56016190156114
45,230.03485970185588,130.01943849359688,254.03485970185588,157.01943849359688
46,348.3412538659857,8.092066493393673,500.3412538659857,310.09206649339365
46,338.8920816414167,104.06482065470271,498.8920816414167,305.0648206547027
46,431.7273895909926,1.4565207508092008,464.7273895909926,58.456520750809204
46,481.15267633160914,12.26114669559399,500.15267633160914,42.26114669559399
46,-0.44795675342551533,2.435662167041613,204.5520432465745,311.43566216704164
46,193.15983095511217,155.22564413173038,278.15983095511217,304.2256441317304
47,94.23932684123838,134.58202083815226,229.23932684123838,203.58202083815226
48,412.8116370876905,60.319836361203784,500.8116370876905,355.3198363612038
48,228.67568300600186,85.05221395477895,385.67568300600186,188.05221395477895
49,59.45548178267735,58.36750969927077,124.45548178267735,140.36750969927078
49,144.87821179895352,38.943524505615756,251.87821179895352,333.94352450561576
49,244.92913820242399,152.13752393954795,341.929138202424,280.1375239395479
49,336.98984566953425,139.70331498375214,460.98984566953425,305.70331498375214
49,15.749001710650717,39.361312860432506,157.7490017106507,157.36131286043252
49,429.8993054800781,257.5749896101453,453.8993054800781,321.5749896101453
49,13.853688925796199,169.45222101997638,93.8536889257962,258.4522210199764
50,70.42699037154824,52.843567834145546,251.42699037154824,432.8435678341456
51,63.29692636367437,36.672397490192,258.2969263636744,372.672397490192
51,238.62075419161494,55.073765713698265,423.62075419161494,376.07376571369826
52,385.9831711480812,167.19417412702614,406.9831711480812,231.19417412702614
52,310.1543709836859,144.39988009595723,335.1543709836859,209.39988009595723
52,284.139473358268,96.43006069681431,306.139473358268,152.4300606968143
52,311.1398997369087,86.92888656109794,334.1398997369087,108.92888656109794
52,152.71562835103018,155.80036571338871,303.7156283510302,218.80036571338871
53,120.09129615287225,151.30955109621522,424.09129615287225,345.3095510962152
53,193.84402401611436,1.7566790826918535,383.84402401611436,121.75667908269185
53,0.5474044082407374,88.55576674559723,467.5474044082407,373.5557667455972
54,285.59985190916575,98.15039593901207,370.59985190916575,225.15039593901207
54,114.51251919149246,172.0055311996606,491.51251919149246,279.0055311996606
55,64.27314708343687,22.54835574369389,384.27314708343687,295.5483557436939
56,74.83566767862337,14.892036315561718,92.83566767862337,36.89203631556172
56,0.9358485467720818,137.1141611721273,31.935848546772082,172.1141611721273
56,178.74090350097597,102.86069128665213,317.74090350097595,161.86069128665213
56,251.79157664313806,293.20034187324967,287.79157664313806,375.20034187324967
56,208.8461486696313,333.2744230233478,244.8461486696313,375.2744230233478
57,2.7485775978530853,82.14446556969096,480.7485775978531,373.14446556969096
58,182.9349754158829,58.91959464082373,337.9349754158829,375.91959464082373
58,443.00235027207106,109.56567929579771,471.00235027207106,181.5656792957977
58,164.7299499745123,120.93860417182685,203.7299499745123,196.93860417182685
58,1.2273688281263198,130.24020568945204,47.227368828126316,170.24020568945204
58,195.18089609344116,12.360380437600497,501.18089609344116,193.3603804376005
59,81.079278633932,283.55911378202694,100.079278633932,330.55911378202694
60,161.2489309850295,142.5379312218681,238.2489309850295,336.5379312218681
60,234.1751993978205,136.8487877958762,293.1751993978205,342.8487877958762
60,368.52629557348786,145.3509564174798,423.52629557348786,277.3509564174798
61,191.21697136385419,101.50974346635667,242.21697136385419,254.50974346635667
61,304.4830877922619,85.57955359126095,501.4830877922619,229.57955359126095
61,1.2352727880871583,80.47872207221928,147.23527278808717,222.47872207221928
61,64.92906010579192,107.61233638548191,182.9290601057919,198.6123363854819
61,223.2775517854853,110.26817705432158,259.2775517854853,145.2681770543216
62,21.437100076496023,143.90773553388678,428.437100076496,330.9077355338868
63,15.299504041821407,38.88734813379813,164.29950404182142,330.8873481337981
63,76.29281299652891,93.19564292090604,160.2928129965289,331.19564292090604
63,143.4181590618774,58.38765024117251,265.4181590618774,334.38765024117254
63,220.57760581317916,56.03085452590284,292.57760581317916,245.03085452590284
63,250.927079729696,80.96274584916728,347.927079729696,325.9627458491673
63,262.84967912882354,53.00927298745779,453.84967912882354,333.0092729874578
64,182.92234694241483,49.811366596259546,441.92234694241483,284.8113665962595
64,0.8967783410494405,157.04524214065262,239.89677834104944,318.0452421406526
64,-2.0697129022933325,1.918273268811113,460.9302870977067,110.9182732688111
64,-0.7240111944280869,0.1496507000935594,221.2759888055719,160.14965070009356
65,166.8854299920341,187.00154807403868,191.8854299920341,274.0015480740387
65,183.99753893269775,189.40199387762513,201.99753893269775,271.40199387762516
65,196.7747555145414,187.02222046643752,230.7747555145414,280.0222204664375
65,224.00789586337194,187.18053158429387,246.00789586337194,228.18053158429387
65,250.14637086610833,202.82621163196185,272.1463708661083,270.8262116319619
65,322.00821263540485,198.5608327994391,342.00821263540485,268.56083279943914
65,474.03781916521456,15.108544750626457,500.03781916521456,41.10854475062646
65,441.1384609292887,16.06979395147209,472.1384609292887,37.06979395147209
66,32.149624496864675,96.94349406861011,170.14962449686467,334.9434940686101
66,386.77861995567025,125.9995451515091,435.77861995567025,226.9995451515091
67,118.50358016959558,17.325839461474203,416.5035801695956,372.3258394614742
67,9.937023007079546,-1.0747227977498142,127.93702300707955,320.9252772022502
68,284.7926339007477,97.94390802575879,425.7926339007477,318.9439080257588
68,5.1147279928214715,24.907890278680128,228.11472799282149,300.90789027868016
69,46.465244933308426,145.49877294189633,184.46524493330844,496.49877294189633
70,67.8278902008953,52.080646610012195,392.8278902008953,361.0806466100122
70,389.57672542566036,154.43799514607673,481.57672542566036,369.43799514607673
70,10.770749740375834,296.80948071793546,503.77074974037583,370.80948071793546
71,0.7456125276538046,196.43619145948475,215.7456125276538,251.43619145948475
71,391.9460565426826,197.81537063892435,438.9460565426826,219.81537063892435
72,3.3204271393114198,89.02095393849052,303.3204271393114,298.0209539384905
72,86.14072797355894,205.21897833672483,229.14072797355894,331.21897833672483
72,261.08188607269227,189.14362624389213,373.08188607269227,332.14362624389213
72,5.488005369476426,141.7744049817832,121.48800536947643,293.77440498178316
72,224.5326794940833,113.28500679509176,354.5326794940833,335.28500679509176
73,1.7305113015694147,41.01087148862493,98.73051130156941,223.01087148862493
73,240.5960047591435,160.30550179413794,413.5960047591435,330.30550179413797
74,239.85320086120578,67.97097643051436,439.8532008612058,307.9709764305144
74,19.499278591560454,74.38655876379022,242.49927859156045,309.3865587637902
74,53.524523092306026,301.7508371626958,496.524523092306,332.7508371626958
74,69.82573459534287,141.2878492245467,104.82573459534287,173.2878492245467
74,214.72564736656162,117.23191845356908,275.7256473665616,194.23191845356908
75,73.78527779615018,45.71895240598701,332.7852777961502,375.718952405987
76,208.10166831822943,208.74474546558432,263.10166831822943,234.74474546558432
76,346.6995317160078,199.96757362159843,383.6995317160078,219.96757362159843
76,378.7922073193934,177.6562579122185,438.7922073193934,216.6562579122185
76,132.00244834457035,208.2419565565298,141.00244834457035,234.2419565565298
76,137.91996263726375,216.10984656825633,146.91996263726375,233.10984656825633
76,284.91250244754735,199.01669945255398,305.91250244754735,212.01669945255398
77,77.96276388421569,92.36142142686512,398.9627638842157,372.36142142686515
78,-0.23351822579050463,78.96671703904877,380.7664817742095,499.9667170390488
79,88.89892518575704,59.31920798414336,500.89892518575704,375.31920798414336
79,167.11894429384125,-1.2178718045329902,502.11894429384125,372.782128195467
80,91.64772186972095,90.49285411465718,358.64772186972095,261.4928541146572
80,1.5909761754933172,93.2955103410925,110.59097617549332,224.2955103410925
80,441.0815222367731,172.9805239515364,489.0815222367731,190.9805239515364
80,360.2144135514424,175.13203756419182,391.2144135514424,189.13203756419182
81,114.11263306171426,117.6481744717425,316.1126330617143,314.6481744717425
82,338.8044898931158,72.35326774225248,500.8044898931158,375.35326774225246
82,11.080366505789783,53.71758372831573,184.08036650578978,372.71758372831573
82,128.17740437488115,235.30486971623856,340.1774043748811,374.30486971623856
83,113.74512692415138,258.40396573358794,146.74512692415138,356.40396573358794
84,359.1808204416042,161.8162519273222,410.1808204416042,300.81625192732224
84,-1.3348451766738663,2.9246148351324734,329.66515482332613,339.9246148351325
84,421.93211083931,180.17807958091538,437.93211083931,223.17807958091538
85,122.12042556031614,67.67498768428715,215.12042556031614,309.67498768428715
85,184.72232516431842,130.12507897153938,460.7223251643184,330.1250789715394
85,0.034192597667697555,98.77952410844432,132.0341925976677,290.7795241084443
86,185.01027219468645,156.1273665459377,279.0102721946864,264.12736654593766
86,273.1627230275799,82.03525799322261,363.1627230275799,200.03525799322261
87,153.0886593205169,40.39266721081907,477.0886593205169,403.39266721081907
87,14.977342247790247,172.84422573275538,181.97734224779026,502.8442257327554
88,141.38627159231083,195.07477552472272,211.38627159231083,241.07477552472272
89,69.1257014579206,63.7067949289827,407.1257014579206,335.70679492898273
90,100.04791649770829,121.54156712484547,276.0479164977083,373.54156712484547
90,220.55607013522052,137.56065679272956,405.5560701352205,368.56065679272956
91,168.23467585796695,128.80555326420637,263.234675857967,224.80555326420637
92,189.5060828608968,127.9158499496582,374.5060828608968,274.9158499496582
92,190.80673603791942,145.98117567762702,215.80673603791942,178.98117567762702
92,259.2395679643047,95.57137204588153,305.2395679643047,208.57137204588153
93,338.37372314843077,207.3005572691357,501.37372314843077,374.3005572691357
93,140.32338758845015,247.9074963210545,325.32338758845015,373.9074963210545
93,26.531268095382245,268.3526842847421,154.53126809538225,374.3526842847421
94,114.4432024961466,158.58692365100762,225.4432024961466,497.5869236510076
94,314.58609259428175,179.64081477526076,374.58609259428175,501.64081477526076
94,281.7594109125919,178.3434821212066,333.7594109125919,387.3434821212066
95,69.59104194623393,96.16819210619312,137.59104194623393,315.16819210619315
95,143.37757728073905,104.6785645160125,207.37757728073905,313.6785645160125
95,221.3324854072762,120.3804219879951,282.3324854072762,315.3804219879951
95,17.412562748505785,109.21995932181989,67.41256274850579,242.21995932181989
95,425.8881794504317,167.37750484156504,459.8881794504317,229.37750484156504
95,429.44329234116293,218.77899290606769,489.44329234116293,320.7789929060677
95,384.18897734157093,162.34000921404052,429.18897734157093,225.34000921404052
95,207.8659257519717,115.88496192948523,240.8659257519717,172.88496192948523
95,267.1579286771749,130.86589487712024,297.1579286771749,194.86589487712024
95,346.95318813622197,149.82033506666735,382.95318813622197,239.82033506666735
95,196.2011974827073,176.71623909569257,355.2011974827073,305.7162390956926
95,274.16121914890203,163.86775765193963,380.16121914890203,293.86775765193966
95,108.09773833972363,90.82321048738194,149.09773833972363,166.82321048738194
95,0.769341484406521,112.0703039265633,24.76934148440652,156.0703039265633
95,429.0790686985289,228.07328674429345,439.0790686985289,246.07328674429345
95,422.98904343438045,225.89954962276096,430.98904343438045,247.89954962276096
95,417.961268716521,229.88442429965355,426.961268716521,249.88442429965355
95,409.92078421041117,229.1362128753145,418.92078421041117,261.1362128753145
96,-0.2716679657912664,332.44297671710837,187.72833203420873,499.44297671710837
96,17.410087430127277,285.91385675710814,375.4100874301273,501.91385675710814
96,62.167241714947664,269.8163994769826,217.16724171494766,469.8163994769826
96,149.8331394589481,259.8076061042048,266.8331394589481,443.8076061042048
96,321.27106115240946,257.3607678995863,375.27106115240946,419.3607678995863
97,23.29369319551094,86.75353505275183,376.29369319551097,200.75353505275183
98,216.51129870742818,157.1102160449498,297.5112987074282,234.1102160449498
99,383.5466566900377,101.92301414332421,500.5466566900377,138.92301414332422
99,89.7785673578177,100.84094218422332,384.7785673578177,137.8409421842233
99,0.3950555574117658,96.91162702298136,86.39505555741177,137.91162702298135
100,1.0730086149013687,133.13962090015548,255.07300861490137,376.1396209001555
101,69.67761790504221,169.18632891938972,279.6776179050422,499.1863289193897
101,303.4822677360313,168.83847436576355,375.4822677360313,499.83847436576355
102,-0.8631679985373637,172.92006081564762,306.1368320014626,376.9200608156476
102,62.01518630312998,162.15986712103324,415.01518630313,376.15986712103324
102,408.88476606441037,127.98828113668372,425.88476606441037,157.98828113668372
102,-2.476084191422359,139.32073148540513,442.5239158085776,373.32073148540513
102,156.81723472635366,104.68352992322087,488.81723472635366,373.6835299232209
103,24.241786978071474,35.902768716678764,299.24178697807145,406.9027687166788
104,26.14822012017538,4.111062311915447,501.1482201201754,335.1110623119155
105,2.5817309691477703,44.85184005940121,379.58173096914777,238.8518400594012
106,215.55396033971653,5.483436328796273,446.5539603397165,378.4834363287963
106,34.95333918608915,2.1136073196134078,140.95333918608915,201.1136073196134
107,3.1041473125705465,237.43724873564338,449.10414731257055,335.4372487356434
107,78.23439708946026,35.26378139720589,218.23439708946026,239.2637813972059
107,199.92956373691624,11.646480476952064,388.92956373691624,242.64648047695206
107,164.48120135285708,173.5394941410655,255.48120135285708,245.5394941410655
108,96.18371233464413,64.85598479909677,300.18371233464416,333.85598479909675
109,65.42023829316567,342.04947313502976,151.42023829316565,375.04947313502976
109,99.71337807261236,337.17296362493016,172.71337807261236,364.17296362493016
110,7.109365373295589,23.660888670687825,329.1093653732956,413.6608886706878
110,1.2335967133289785,-1.6669974103608354,315.233596713329,444.33300258963914
111,36.151070939382464,1.6503292058108343,310.15107093938246,409.65032920581086
112,42.367852764731424,141.22798445678762,264.3678527647314,407.2279844567876
113,83.99205132780762,155.19298938657107,259.99205132780764,408.19298938657107
113,60.53059729910248,28.009885927208245,308.5305972991025,448.00988592720824
114,1.997355428122745,13.585038609663798,278.9973554281228,497.5850386096638
114,79.57449929424297,253.27544144692382,345.57449929424297,498.2754414469238
115,-0.5442846568209916,-0.28999728788781454,498.455715343179,331.7100027121122
116,1.583841217720618,6.645996786822394,498.58384121772065,373.64599678682237
116,6.704888969085914,80.79742576277678,136.7048889690859,278.7974257627768
116,3.2395679643046797,109.57137204588153,49.23956796430468,222.57137204588153
116,93.72826346534012,77.91862732973257,150.72826346534012,186.91862732973257
116,126.47773684890794,85.31273628777376,186.47773684890794,219.31273628777376
117,-1.6479639695805304,3.7551576055209637,337.35203603041947,327.75515760552094
118,207.8312586027352,98.95798747528829,335.8312586027352,259.9579874752883
118,326.2972425442099,79.14859778286076,359.2972425442099,112.14859778286076
118,89.6738869685006,83.40894818137397,127.6738869685006,136.40894818137397
118,163.7732838050124,83.36579051840194,196.7732838050124,127.36579051840194
118,193.94114399623612,77.75200292449323,218.94114399623612,120.75200292449323
118,260.80609430625753,85.10419392122061,284.80609430625753,128.1041939212206
119,149.46818987332813,106.24581681656517,212.46818987332813,287.24581681656514
119,323.64319572856465,121.98139762332642,393.64319572856465,254.98139762332642
119,462.1105170344907,137.96099493405552,482.1105170344907,177.96099493405552
119,478.9695755017669,138.0612560878161,495.9695755017669,184.0612560878161
120,306.3492914404755,287.4019982589978,485.3492914404755,347.4019982589978
120,43.87772827360908,287.9477252029939,60.87772827360908,303.9477252029939
120,24.932177836439042,284.02948930765217,36.93217783643904,306.02948930765217
121,150.29588047493772,-0.3545353719605373,307.2958804749377,254.64546462803946
121,184.32970353498047,2.261284992716128,312.32970353498047,291.2612849927161
121,229.84098362063872,-0.09188265839608789,500.8409836206387,328.9081173416039
122,106.9598153301252,131.02751239929728,249.9598153301252,374.0275123992973
122,174.59561612782846,76.58981648486119,468.59561612782846,375.5898164848612
122,314.1817535206244,160.19801430821357,371.1817535206244,241.19801430821357
122,-2.852431040883147,66.07228159936744,496.1475689591168,376.07228159936744
122,326.02586691199286,1.7787461561659015,461.02586691199286,120.77874615616591
122,443.9667933739105,41.678540471281025,499.9667933739105,121.67854047128102
123,2.441002135745393,52.83255375309059,158.4410021357454,205.8325537530906
123,274.39511302786906,241.05397762085244,501.39511302786906,376.05397762085244
123,401.1194159562829,124.20144958619264,434.1194159562829,179.20144958619264
124,112.03585877123564,143.29194937529647,338.03585877123567,276.29194937529644
124,226.44728676142483,104.64324893202718,287.44728676142483,220.64324893202718
125,101.42594568454672,19.772487762173796,399.4259456845467,392.7724877621738
125,37.04206774315003,183.74363764887966,239.04206774315003,484.74363764887966
126,18.4032079814898,79.18538580442845,319.4032079814898,373.18538580442845
127,55.469849039351885,48.81239062491244,354.46984903935186,496.81239062491244
128,38.969675560140985,101.97558346789566,251.96967556014098,331.97558346789566
128,237.55766139180747,107.00054989994774,404.55766139180747,335.0005498999477
128,373.24313918447734,99.35720021927872,499.24313918447734,331.35720021927875
129,142.7578425416213,29.824510701585552,429.7578425416213,474.82451070158555
129,0.3801085755824616,2.180546252846,105.38010857558245,352.180546252846
130,0.0038224517222715804,45.11398681438263,293.0038224517223,366.11398681438266
131,99.58097938693734,182.70587568188787,203.58097938693734,262.70587568188785
131,105.21568933293565,129.57767372349704,190.21568933293565,256.577673723497
131,245.28321949971996,156.07060767540307,464.28321949971996,239.07060767540307
132,156.5853814041252,116.54822176067651,402.5853814041252,373.5482217606765
133,226.22232364176898,2.55815646169728,487.222323641769,334.5581564616973
134,252.03002608363516,170.36468453004258,364.03002608363516,243.36468453004258
134,293.62289410353725,137.08907857292513,338.62289410353725,221.08907857292513
135,46.65704806057323,116.8682961915627,195.65704806057323,503.8682961915627
135,179.86439341795082,141.49610528597964,278.86439341795085,499.49610528597964
136,2.3169350192725346,78.97357936713644,384.31693501927253,331.97357936713644
136,158.2298222799338,14.504127274634513,305.22982227993384,168.50412727463453
137,-1.527680234425901,-0.6732433582953945,497.47231976557407,373.3267566417046
138,226.25764048095482,242.26132437908285,427.2576404809548,474.26132437908285
138,15.958560013267515,92.5741179132279,263.9585600132675,472.5741179132279
138,96.15002809198313,4.130010243561372,297.15002809198313,398.1300102435614
138,235.59459274087783,21.522568682304666,389.59459274087783,290.52256868230467
138,320.59568453418296,68.64164005845629,500.59568453418296,461.6416400584563
139,217.06467769821495,82.21378263030883,328.06467769821495,220.21378263030883
139,62.43141001046061,52.86612971803123,310.4314100104606,479.86612971803123
139,2.8615896394389893,237.55842198201725,198.861589639439,489.55842198201725
140,100.66251624085822,48.96782751309141,409.6625162408582,286.9678275130914
141,0.8337682969304154,2.222586561576975,147.83376829693043,261.222586561577
141,347.0065510701322,198.66655209518285,499.0065510701322,324.66655209518285
142,53.5832305301615,192.15307596079253,385.5832305301615,375.15307596079253
142,103.33058289630716,68.9838633572501,270.3305828963072,199.9838633572501
142,1.0290304983280194,135.257426733786,54.02903049832802,374.257426733786
143,212.4315133851903,100.17093203446211,271.4315133851903,300.1709320344621
143,247.53192415421364,89.7982437388674,309.53192415421364,290.7982437388674
143,352.7792567732177,117.79512050741229,410.7792567732177,143.7951205074123
143,417.83359031435083,126.12494847791325,453.83359031435083,146.12494847791325
144,177.63292372133097,145.64826119078938,244.63292372133097,343.6482611907894
145,-1.3519980474578972,4.319446417294614,496.64800195254213,374.3194464172946
146,152.08538071685848,57.51926297469271,394.0853807168585,325.5192629746927
146,33.85535648330344,-1.2712633277503187,287.85535648330347,335.7287366722497
146,167.16642378425456,46.61936086675823,477.16642378425456,374.61936086675826
146,0.2832584846479165,79.82264975029926,187.28325848464792,377.82264975029926
147,45.222051588410864,357.28715873426927,370.22205158841086,488.28715873426927
148,145.25257448818041,24.207250350666385,497.2525744881804,334.2072503506664
149,19.777786151522093,67.27034281360054,501.7777861515221,373.27034281360056
149,263.1168549867675,2.7119858897892044,297.1168549867675,85.7119858897892
149,201.11822358281782,33.17862208225775,233.11822358281782,63.17862208225775
149,128.23635194001355,32.12587046244911,168.23635194001355,64.12587046244911
149,46.67186997861161,43.95046359145496,81.67186997861161,100.95046359145496
149,20.222129021111122,40.247661154821884,49.22212902111112,94.24766115482188
149,0.37615240651589943,60.813624805089745,320.37615240651587,251.81362480508974
150,123.4843673991351,53.7632780339745,287.48436739913507,341.76327803397453
150,49.32756861208006,179.40593973873803,310.3275686120801,375.405939738738
150,113.83861936603427,184.53030496489924,200.83861936603427,371.53030496489924
150,1.3196317994481177,110.68618809948288,95.31963179944812,374.6861880994829
151,276.03290027542647,166.28309003739523,351.03290027542647,208.28309003739523
151,83.06627052592845,62.06033876607222,202.06627052592845,105.06033876607222
151,363.313066250454,76.64391244512355,444.313066250454,113.64391244512355
151,1.3839112222768115,55.26350681167817,56.38391122227681,134.26350681167816
152,74.40639648447416,307.93804099540216,266.40639648447416,500.93804099540216
153,72.25511654038968,4.1964720758406315,503.2551165403897,336.19647207584063
154,62.91539242019289,154.85031724944463,213.9153924201929,424.85031724944463
154,62.86046752890215,18.047388065891738,257.8604675289022,430.0473880658917
154,-2.007732477869922,133.57900020813565,316.9922675221301,423.57900020813565
155,4.459706960629035,84.84814517003377,232.45970696062903,246.84814517003377
155,159.73747351895832,164.3539346819507,479.7374735189583,357.3539346819507
156,63.826030950902634,18.122291931878976,260.82603095090263,239.12229193187898
157,23.582719206331916,32.63023125469192,290.58271920633194,190.63023125469192
158,119.76379109971305,33.348778100897135,372.76379109971305,333.3487781008971
158,53.499586507270294,47.48542431535006,498.4995865072703,329.4854243153501
158,11.925322078527675,117.40562188338413,41.92532207852767,184.40562188338413
159,17.67151086508909,-1.073935904745312,294.6715108650891,237.92606409525467
160,0.9257164148197035,235.13276588804678,145.9257164148197,482.1327658880468
160,96.75077833622987,1.1664081762871774,319.75077833622987,478.1664081762872
161,3.6843240985301122,1.9812689246337243,443.6843240985301,374.9812689246337
162,19.065102442630177,1.8816723178799037,252.06510244263018,213.88167231787992
163,1.2970350497971879,185.17214446645738,271.29703504979716,478.1721444664574
163,2.1770134899194176,90.89760972763406,195.17701348991943,448.89760972763406
164,188.96785143686998,107.79420973494564,496.96785143687,463.79420973494564
164,9.77484867422072,33.38154528609931,275.7748486742207,315.3815452860993
165,15.783859168500584,70.37446558677766,373.7838591685006,493.37446558677766
166,-0.3425302021010168,284.1398930064878,328.657469797899,443.1398930064878
166,8.857250728911879,2.1926849837431632,335.8572507289119,496.19268498374316
167,32.3495329273523,145.5521331199745,422.3495329273523,329.55213311997454
167,127.93721369679443,72.38860284517017,323.9372136967944,241.38860284517017
167,24.306149504395812,15.089729957033327,103.30614950439582,88.08972995703333
167,84.25363116064689,0.6046254479082478,168.25363116064688,72.60462544790825
167,168.8718948064311,1.5278892837381193,265.8718948064311,72.52788928373812
167,266.34750827146553,1.3865872323020128,346.34750827146553,89.38658723230202
167,309.3387562456538,0.5547187245001268,384.3387562456538,83.55471872450013
167,365.0801626875359,5.541288625611919,482.0801626875359,91.54128862561191
168,238.89841026392952,91.56136729057005,307.8984102639295,221.56136729057005
168,396.0314270024472,102.57172972013618,440.0314270024472,171.57172972013618
168,239.757387825453,105.38945881070279,431.757387825453,375.38945881070276
168,344.02854447520434,60.96359967932351,359.02854447520434,82.96359967932351
168,61.98193002755224,12.769796210094654,272.98193002755227,374.7697962100947
168,411.6140793940724,84.17816246899585,500.6140793940724,364.1781624689959
169,207.3796523333989,9.29627635452772,283.3796523333989,226.29627635452772
170,318.10006083422996,186.9154482283369,329.10006083422996,222.9154482283369
171,86.95685017488117,179.24990148529676,178.95685017488117,282.24990148529673
171,137.1880079410746,172.19618136942677,398.1880079410746,336.19618136942677
171,130.13904977924514,164.43942410837283,326.13904977924517,337.4394241083728
171,4.676803007062887,153.37603155211352,167.6768030070629,261.37603155211355
172,-1.456202241223309,6.16732764485964,291.5437977587767,241.16732764485965
172,327.71291339756624,40.142054291142955,499.71291339756624,266.1420542911429
172,133.93798492644248,176.69700333442245,274.9379849264425,239.69700333442245
172,221.144265786007,16.088584210987406,419.144265786007,227.0885842109874
173,5.3005147833415265,81.09831942286668,277.30051478334155,174.09831942286667
173,297.3777268951248,116.45338482060734,482.3777268951248,182.45338482060734
174,119.13716681872839,44.50715017402402,373.13716681872836,331.507150174024
174,1.76186982630567,161.5899123117914,136.76186982630566,215.5899123117914
174,80.99619389217929,192.3455632516924,136.9961938921793,236.3455632516924
174,132.16238430985993,135.121923556053,172.16238430985993,154.121923556053
174,329.3736334505641,141.83610507681183,382.3736334505641,174.83610507681183
174,459.8571812051201,142.16110490271757,499.8571812051201,166.16110490271757
174,428.7604554108771,136.86578288097112,474.7604554108771,154.86578288097112
174,111.19083919129004,121.07784640690659,136.19083919129002,134.0778464069066
174,302.0680467609621,139.89352641682265,337.0680467609621,153.89352641682265
175,58.19767287132038,2.754761654103902,492.1976728713204,373.7547616541039
176,91.92987981355242,90.77537979710368,253.92987981355242,372.7753797971037
176,227.16285909077197,90.42016656394466,374.162859090772,372.4201665639447
177,-1.4242233103182969,1.6850401241703423,471.5757766896817,375.6850401241703
178,-1.611327225489731,0.16000292208373423,317.38867277451027,239.16000292208372
178,54.54136671294307,36.17044422662437,320.54136671294305,229.17044422662437
179,3.014043874954922,5.658993609421003,294.01404387495495,201.658993609421
179,-1.196113939200302,-1.0410428127896694,317.8038860607997,237.95895718721033
180,92.82603095090263,111.12229193187898,289.82603095090263,332.122291931879
180,95.3623284576226,5.407745153127848,386.3623284576226,329.40774515312785
180,353.32418987605314,198.96029693072052,432.32418987605314,330.9602969307205
181,78.11729021796012,63.32748010336951,281.1172902179601,405.3274801033695
182,135.3604644988648,29.003208647759777,311.36046449886476,499.0032086477598
182,24.808350964830566,21.813653019959645,313.80835096483054,500.81365301995965
183,10.134313947592375,122.65228844301976,237.13431394759237,453.65228844301976
184,367.4538348070983,214.96321794538227,475.4538348070983,252.96321794538227
184,-1.4710222661739465,99.11739921613494,422.5289777338261,265.1173992161349
185,231.28258692870673,194.02876445256115,329.28258692870673,282.0287644525612
186,391.46065381514165,27.297599827098963,499.46065381514165,346.29759982709896
186,2.1241292784953174,13.493917936925442,126.12412927849532,323.4939179369254
186,27.866156306681546,0.4349232542367645,134.86615630668155,123.43492325423676
186,130.41103014020925,0.6261000286174863,247.41103014020925,123.62610002861749
186,245.81660269543175,0.8367364229356511,392.81660269543175,120.83673642293564
186,102.96729982347631,21.545891532731332,337.9672998234763,363.54589153273133
187,3.940488193877968,1.7325753053047492,379.94048819387797,373.73257530530475
188,90.94871409895845,237.48943613949893,204.94871409895845,485.48943613949893
188,40.907296460824085,331.4042995893209,244.90729646082409,487.4042995893209
189,0.537632008683488,120.219422906696,483.5376320086835,358.21942290669597
189,3.2971146574034833,-2.450949644576241,502.2971146574035,371.5490503554238
190,5.608416382238943,37.95637306401579,302.60841638223894,385.9563730640158
191,63.077152891599724,52.65510057771695,266.0771528915997,453.65510057771695
192,152.0136641938529,166.54212242930132,403.0136641938529,335.54212242930134
193,8.208129277254415,59.05144113030045,280.20812927725444,376.0514411303004
193,203.28980246986214,37.60063297399603,477.28980246986214,375.600632973996
193,437.1904073951639,211.54813117390535,500.1904073951639,373.54813117390535
193,1.0109894198869824,227.36198628310302,67.01098941988698,376.361986283103
194,355.2307092729592,6.089752905954398,474.2307092729592,89.0897529059544
194,168.0410441448858,19.37288412947145,243.0410441448858,87.37288412947146
194,206.00857624986673,259.25214897926696,271.00857624986673,310.25214897926696
194,350.2453811424949,282.37115962057663,391.2453811424949,333.37115962057663
194,28.250297633966127,113.42017646317322,107.25029763396613,208.42017646317322
194,182.7057603492344,112.13047301873613,273.7057603492344,226.13047301873613
194,447.8863963090594,133.531244169793,499.8863963090594,247.531244169793
194,123.87229199437391,29.49969476376991,241.8722919943739,199.49969476376992
194,445.04270057507443,250.11735221532825,465.04270057507443,287.11735221532825
195,203.96134500462244,198.1633188842432,225.96134500462244,250.1633188842432
195,240.85794481843405,198.563939274854,261.857944818434,251.563939274854
195,257.9541493135914,197.18137788564184,276.9541493135914,259.18137788564184
195,293.877621290492,191.923254278562,327.877621290492,267.923254278562
195,316.1550473298617,194.48349728489762,349.1550473298617,266.4834972848976
195,348.8874411115275,195.01778375045348,373.8874411115275,263.0177837504535
195,83.96265126879135,227.94765892904007,108.96265126879135,255.94765892904007
195,61.878412414887876,226.02266059227455,83.87841241488788,252.02266059227455
196,191.93912206421095,180.61427333241082,241.93912206421095,235.61427333241082
196,124.71188182217173,185.9615893684304,195.71188182217173,261.9615893684304
196,53.67477250018402,155.58067669911026,130.67477250018402,236.58067669911026
197,261.9660264545029,339.2943133663754,273.9660264545029,372.2943133663754
197,86.04047033497793,103.25460149132036,301.04047033497795,286.2546014913204
197,194.16606659990723,128.59064384905673,247.16606659990723,213.59064384905673
198,172.23655295079493,29.494872876965047,360.23655295079493,313.494872876965
198,311.27895710115496,2.179908270236595,498.27895710115496,161.17990827023658
199,0.5533977768861291,85.51241974103334,342.55339777688613,373.51241974103334
199,221.93509462937612,95.28005985170321,501.9350946293761,290.2800598517032
200,5.418424372248438,-2.3517950933521377,134.41842437224844,347.64820490664783
200,252.22435271887662,222.91325625319897,301.2243527188766,258.91325625319894
201,80.30370470984968,89.35778479106642,356.3037047098497,319.3577847910664
201,49.077870798915114,56.806625903469126,504.0778707989151,376.8066259034691
202,11.883325257993562,107.4227560710176,211.88332525799356,372.4227560710176
202,150.44686431222743,129.37338646652793,356.44686431222743,377.3733864665279
202,292.22059507884916,62.72737919718725,500.22059507884916,376.72737919718725
202,132.37932020809313,215.35154856651218,249.37932020809313,376.3515485665122
203,61.181301309649,61.584131615615576,433.18130130964903,299.58413161561555
204,53.092578369261645,26.156149482131667,379.0925783692617,233.15614948213167
204,392.61807886023195,182.34835247515437,500.61807886023195,314.34835247515434
204,266.1007658108116,179.66003271178772,292.1007658108116,228.66003271178772
204,334.14744538555505,182.63148081635006,357.14744538555505,235.63148081635006
204,353.92884127148506,170.35542700113297,381.92884127148506,246.35542700113297
204,208.01747870069323,174.29114222162573,231.01747870069323,235.29114222162573
204,233.12349089649717,174.43188782436235,254.12349089649717,232.43188782436235
204,290.93818054037484,179.95146185515108,302.93818054037484,211.95146185515108
204,244.92264420663187,174.10034396691395,258.92264420663184,209.10034396691395
205,1.0901411466846582,21.460634223427775,335.0901411466847,340.46063422342775
205,261.1450496403685,24.532030204874815,500.1450496403685,339.5320302048748
205,431.1958097944968,43.67692538185119,500.1958097944968,297.6769253818512
205,0.5712649994938559,65.00975383616071,68.57126499949385,262.0097538361607
206,84.79397995026953,406.7127252230431,105.79397995026953,498.7127252230431
207,76.82225181143801,42.284398601203605,201.822251811438,460.28439860120363
207,148.81187736761166,176.79681815791577,274.81187736761166,444.79681815791577
208,219.8594208408246,139.11833741569038,376.8594208408246,294.11833741569035
208,34.32713143579548,67.0726804703948,445.3271314357955,374.0726804703948
208,364.4138145867841,219.39572287330327,454.4138145867841,334.39572287330327
209,178.08268112018152,15.970088990212844,449.0826811201815,332.97008899021284
209,22.334090060323007,25.33710455211329,212.334090060323,334.33710455211326
209,196.08993069800582,256.96313855810024,237.08993069800582,331.96313855810024
209,35.04403139067905,278.91375253658094,75.04403139067905,331.91375253658094
210,107.02409535675346,7.0026618701278665,162.02409535675346,141.00266187012787
210,75.50306822707518,55.43734562550236,181.50306822707518,142.43734562550236
211,107.84169255858902,175.98707122593999,399.841692558589,234.98707122593999
212,87.26465566224306,100.62481716787829,291.26465566224306,194.6248171678783
212,258.9459293714736,27.703477378600084,424.9459293714736,113.70347737860008
213,324.6881628095195,309.4874234776922,388.6881628095195,375.4874234776922
213,172.22487278625496,303.0151439249444,195.22487278625496,375.0151439249444
213,138.8931435212188,300.6002654550383,171.8931435212188,375.6002654550383
214,83.82826055305307,178.42708462085562,311.82826055305304,499.4270846208556
214,1.843236946044854,255.92975834149303,248.84323694604484,500.929758341493
215,441.8565189905399,134.50433859128336,499.8565189905399,227.50433859128336
215,346.6409470922115,70.6844384813908,414.6409470922115,217.6844384813908
215,178.4848038519617,29.982440276836684,229.4848038519617,160.98244027683668
215,119.12380125192095,56.96694507058427,189.12380125192095,191.96694507058427
215,70.09411056030396,86.45730575726964,109.09411056030396,167.45730575726964
215,3.6929027443964557,91.47789287499103,36.692902744396456,179.47789287499103
215,16.352001921472855,82.19692280036281,102.35200192147286,183.1969228003628
215,25.680782878182185,27.06781049633946,408.6807828781822,378.06781049633946
216,165.21265323780312,76.27330065519735,364.2126532378031,376.2733006551973
216,66.07461828151511,49.88817313222671,77.07461828151511,63.88817313222671
216,273.9650591002893,40.05834347225673,278.9650591002893,56.05834347225673
216,481.99847637383874,31.048614848970047,489.99847637383874,52.04861484897005
216,492.9681398854639,30.921439343861977,498.9681398854639,50.92143934386198
217,423.01458735163277,150.36344591354592,500.01458735163277,316.3634459135459
217,239.93558970574594,109.98776945930362,356.93558970574594,373.98776945930365
217,87.8511933350762,95.984535374905,230.8511933350762,376.984535374905
217,2.080310247608537,129.35489801802174,158.08031024760854,372.35489801802174
218,4.868148971833648,3.716055994322346,503.86814897183365,344.71605599432235
219,277.6200948992436,179.23594365377392,367.6200948992436,446.2359436537739
219,236.04367641123764,227.90622784119398,251.04367641123764,258.906227841194
220,4.3651291782836665,-3.1359064299417128,352.36512917828367,495.8640935700583
221,85.00720999808988,4.648704588650901,416.0072099980899,378.6487045886509
222,-0.07943386630452665,1.8593814438868606,300.9205661336955,373.85938144388683
222,298.55246171814224,9.121675602289798,498.55246171814224,372.12167560228977
222,242.20881555344033,1.1364721243996456,355.20881555344033,145.13647212439963
223,53.32816136822544,1.3704771187833273,450.32816136822544,333.37047711878336
224,241.85793232070597,99.68379773509099,262.85793232070597,159.683797735091
224,157.1727854126459,105.22829715032057,177.1727854126459,157.22829715032057
224,137.98019558603377,100.5155485170433,155.98019558603377,154.5155485170433
224,121.79500205229556,99.2392982972799,144.79500205229556,154.2392982972799
224,103.94542036629414,96.75228504577561,122.94542036629414,153.7522850457756
224,91.91433802713125,99.86246880128316,108.91433802713125,155.86246880128317
224,64.79764843530862,99.25353050082693,86.79764843530862,153.2535305008269
224,48.88342264070293,97.07387744784589,64.88342264070293,153.0738774478459
225,17.142419352676228,157.2031642341968,133.14241935267623,249.2031642341968
225,110.15525416712327,24.15801047766587,340.1552541671233,478.15801047766587
226,11.021450758512401,56.62701847000804,265.0214507585124,275.627018470008
227,214.28381726420184,210.82652330851064,263.28381726420184,277.8265233085107
228,225.50439978404853,363.9208092644471,376.50439978404853,489.9208092644471
229,105.87891378790593,43.899685445166654,328.87891378790596,373.89968544516665
229,-0.6465596055871856,0.031810254139259087,194.35344039441281,263.03181025413926
230,24.924033964276504,24.8526443361213,316.92403396427653,373.85264433612133
230,259.2341021269112,35.838119289652155,484.2341021269112,371.8381192896521
230,404.2237611552599,107.16348533907106,460.2237611552599,194.16348533907106
230,449.8861167338891,117.81146470669913,481.8861167338891,195.81146470669913
230,264.9651889670013,128.09977085235485,274.9651889670013,150.09977085235485
230,292.1111581395517,124.1337160694683,306.1111581395517,149.1337160694683
230,384.02174635039995,117.73289054277936,404.02174635039995,152.73289054277936
231,135.66482904965142,112.97232728537077,503.6648290496514,372.97232728537074
231,-1.4092385740217708,0.3091963385980421,285.59076142597826,374.30919633859804
232,0.3691726004146503,57.77479568205413,69.36917260041466,332.7747956820541
232,362.97379363810745,231.97232264673744,430.97379363810745,333.97232264673744
232,228.0514484655446,232.84770149253478,264.0514484655446,333.8477014925348
232,157.32175079125636,17.669629683743608,368.32175079125636,331.6696296837436
232,124.26923555708348,4.680110356608594,250.26923555708348,332.68011035660857
233,40.92997815512396,59.48317993729157,463.929978155124,275.48317993729154
233,229.83001426406466,68.86832454211488,256.83001426406463,89.86832454211488
233,104.90434002594796,86.58802256048217,234.90434002594796,130.58802256048216
234,167.51625369735078,149.74255086019522,231.51625369735078,330.74255086019525
234,154.54831808707078,84.13389692484645,250.54831808707078,201.13389692484645
234,342.205175495628,1.0589663823961288,363.205175495628,36.05896638239613
234,120.9630255563657,1.1593527379072626,231.9630255563657,41.15935273790726
234,268.5120656186206,1.313368553831868,326.5120656186206,38.313368553831864
235,23.311160449213958,78.79182584099831,493.31116044921396,338.7918258409983
235,124.03832084684507,18.17245898400499,160.03832084684507,110.17245898400499
236,42.49835084144917,196.0074335362611,120.49835084144917,392.0074335362611
236,105.81787750817196,195.2861785988967,193.81787750817196,392.2861785988967
236,167.71275052157515,196.29763900598476,244.71275052157515,381.29763900598476
236,223.89607391777753,197.66611744987256,294.8960739177775,383.66611744987256
236,292.678110363437,199.17479106386952,375.678110363437,382.1747910638695
236,359.35699770915267,199.6026429619958,439.35699770915267,380.6026429619958
237,139.13964968076726,3.3550046843606083,498.13964968076726,369.3550046843606
238,53.69332262483363,123.86880144432035,447.6933226248336,313.86880144432035
238,2.851675953002939,47.99745850923526,80.85167595300294,287.99745850923523
238,180.71852120515743,67.26115118455164,234.71852120515743,144.26115118455164
238,277.79465927150665,84.62206536338665,321.79465927150665,126.62206536338665
239,188.00352048820835,0.7315765731657606,212.00352048820835,66.73157657316577
239,136.2129294011788,1.4296084288382147,159.2129294011788,66.42960842883821
239,8.281847676254799,0.6134908330376909,50.2818476762548,59.61349083303769
239,197.2090871638395,49.8910551670165,473.2090871638395,326.8910551670165
240,0.9957900100243364,4.905726373835677,250.99579001002434,371.9057263738357
240,237.58715528923994,-0.24212320383026054,473.58715528923994,371.75787679616974
241,311.61617446055493,79.3929212986599,409.61617446055493,373.39292129865987
241,248.94681214687404,63.80546774238948,334.94681214687404,268.8054677423895
241,177.6252742109727,85.71535881252672,253.6252742109727,242.71535881252672
241,84.7595417761843,77.27583614237653,185.7595417761843,260.27583614237653
241,193.33595529378766,214.27124910999396,383.33595529378766,376.27124910999396
241,-0.8391935176296244,205.42399900311938,201.1608064823704,374.4239990031194
241,236.9085700569684,42.16807468272452,266.9085700569684,116.16807468272452
242,117.50401568489502,115.84104798273734,398.504015684895,262.84104798273734
243,480.97508975927707,251.2794032061177,493.97508975927707,280.2794032061177
243,422.9573351630808,254.8676431461173,457.9573351630808,271.8676431461173
244,54.31170719826787,75.14361986089452,244.31170719826787,272.14361986089455
244,207.82787563628187,1.6152265830938575,365.8278756362819,146.61522658309386
245,1.7895956616290931,155.3910601972308,176.7895956616291,357.3910601972308
245,94.02928286076337,159.90939482129846,374.0292828607634,500.90939482129846
246,25.783540358387228,15.742066199921538,432.7835403583872,334.7420661999215
246,0.7572698569275786,173.03808768619692,32.75726985692758,259.03808768619695
246,449.1562391154877,211.63847377072193,475.1562391154877,288.63847377072193
247,249.10417088095943,107.1885158010769,498.10417088095943,372.1885158010769
247,2.5140070538091948,33.3165979882524,339.5140070538092,377.3165979882524
248,0.6252828481072186,12.702704185289576,318.6252828481072,500.7027041852896
249,33.648085611557065,204.44152941686116,403.64808561155706,373.44152941686116
250,64.79167102184208,34.737968533268486,156.7916710218421,318.7379685332685
250,58.83177752201823,136.61561713949436,212.83177752201823,498.61561713949436
251,107.10532346514317,205.68719793099564,133.10532346514316,291.68719793099564
251,136.73154994707613,158.6710026590366,182.73154994707613,246.6710026590366
252,218.71678034910548,46.14701585351639,497.7167803491055,335.1470158535164
252,1.2527615842605826,1.741959373660336,246.25276158426058,331.74195937366034
253,331.42947602375915,146.33677484852558,394.42947602375915,322.3367748485256
253,265.91283551789337,145.46725511905856,291.91283551789337,221.46725511905856
253,173.8457846689795,161.4851090074396,201.8457846689795,241.4851090074396
253,226.86250404293423,142.552208104264,293.86250404293423,196.552208104264
254,428.16664200123137,274.1208886052185,500.16664200123137,351.1208886052185
254,283.81945003862444,271.6559948618291,467.81945003862444,341.6559948618291
254,210.66381501977168,269.29045977295874,331.6638150197717,332.29045977295874
254,69.88548583884346,263.1034530792592,213.88548583884346,320.1034530792592
254,1.1522043471175962,283.9490248836514,62.152204347117596,371.9490248836514
254,-1.053888348761717,353.1982528830422,223.94611165123828,375.1982528830422
254,162.25031272754066,261.8526909089332,189.25031272754066,277.8526909089332
254,298.7324476310384,242.01583153282508,365.7324476310384,271.0158315328251
255,124.77115167941892,179.04993594267447,357.77115167941895,290.04993594267444
255,346.0218643165365,158.78219909345952,425.0218643165365,238.78219909345952
255,422.4075778688244,143.90315413147678,499.4075778688244,215.90315413147678
256,-1.3328553788947488,77.83789151839738,262.66714462110525,372.8378915183974
256,147.78197858358146,143.2866877871918,472.78197858358146,373.2866877871918
257,196.59087067159112,114.49787270924901,347.5908706715911,372.497872709249
257,95.67340528139945,43.926193531336196,353.6734052813995,375.9261935313362
258,-2.4670942122978943,57.1710740108135,496.53290578770213,310.1710740108135
258,284.16175570940464,77.26409828126762,331.16175570940464,134.26409828126762
258,236.72563964838676,107.6771197623427,271.72563964838673,153.6771197623427
258,424.6932334827899,151.90328947512603,500.6932334827899,185.90328947512603
259,124.5871854876882,57.58181247823754,232.5871854876882,204.58181247823754
260,97.81258599413181,204.22278598073575,243.8125859941318,501.22278598073575
260,88.0390404457709,128.77520173724156,193.0390404457709,230.77520173724156
260,192.6999460284611,135.6354032418838,303.6999460284611,225.6354032418838
260,0.6510036326455975,216.13109112670668,153.6510036326456,498.1310911267067
260,201.70472476266946,195.462265074794,332.70472476266946,497.462265074794
261,-0.562363519514463,29.520918586729778,498.43763648048554,275.52091858672975
261,272.8278570111236,163.0245032298211,500.8278570111236,311.0245032298211
262,16.640330085620604,55.086629646356414,267.6403300856206,377.0866296463564
262,262.41490955387934,79.20584819697396,450.41490955387934,265.205848196974
262,0.5160251571830372,222.42715890782785,66.51602515718304,375.42715890782785
263,83.64841153985748,39.708440320841646,425.6484115398575,332.70844032084165
264,204.28706240074425,106.70482484171467,267.2870624007443,167.70482484171467
264,21.780371647250192,137.19404795724648,204.7803716472502,332.1940479572465
264,80.6802169946928,98.90126483039597,135.68021699469278,199.90126483039597
264,347.393705570812,94.58032523710031,419.393705570812,252.5803252371003
264,262.18786399930156,99.28264786158269,364.18786399930156,309.2826478615827
264,12.078142238024114,226.22149819069313,182.0781422380241,333.2214981906931
264,264.84709199951493,187.24125208077294,371.84709199951493,331.24125208077294
264,360.79075620799335,155.58364623699876,400.79075620799335,290.5836462369988
264,0.9296802915985616,178.77362183501427,48.92968029159856,222.77362183501427
264,112.39246128735135,170.37372094077017,302.39246128735135,333.37372094077017
265,247.87057628051986,68.12687497694014,491.87057628051986,376.12687497694014
265,-0.9165086397802185,131.07180487783535,194.0834913602198,376.07180487783535
265,137.00331615689248,195.50316104476812,272.0033161568925,259.50316104476815
265,118.90726826211676,229.71797128612857,187.90726826211676,280.71797128612855
265,408.9787621482348,178.93641963137642,447.9787621482348,209.93641963137642
266,3.0506601382538463,71.91279820689243,284.0506601382539,457.91279820689243
267,27.088199270296656,61.921531042170784,249.08819927029666,498.9215310421708
268,141.72310525926997,164.32360402423382,329.72310525926997,500.3236040242338
268,-0.030254810779538843,206.11973073778375,199.96974518922048,469.11973073778375
269,228.14062316471689,49.09753905078486,442.1406231647169,376.09753905078486
269,75.06260705514282,17.86728610617436,217.06260705514282,239.86728610617436
270,1.1811764648956,151.14775521048412,314.1811764648956,219.14775521048412
271,85.86226248308142,1.829516029276931,392.8622624830814,375.82951602927693
271,159.1408623361244,80.1008921395696,308.1408623361244,347.1008921395696
271,89.13504682397726,170.96799988593506,395.1350468239773,375.96799988593506
272,326.9707232877763,214.9151742750918,346.9707232877763,265.9151742750918
272,219.3653600756923,153.87983630094953,313.3653600756923,259.87983630094953
273,-2.6952753099305937,183.38968616573368,384.3047246900694,346.3896861657337
273,3.2591456948063637,264.96643276095546,319.25914569480636,374.96643276095546
273,53.56342643333021,255.84892148915924,162.56342643333022,336.84892148915924
273,1.0848764497191965,265.35170762894063,45.0848764497192,350.35170762894063
273,150.06929411719238,246.31510714786702,248.06929411719238,325.315107147867
273,69.03967108772018,240.5149653933845,180.0396710877202,308.5149653933845
273,1.288138483728794,235.45552783911097,100.2881384837288,286.45552783911097
273,448.67004791666585,114.32749732165965,499.67004791666585,251.32749732165965
274,325.0692649320976,134.1013885197722,500.0692649320976,376.1013885197722
274,2.1822044844296187,53.78072634877449,198.18220448442963,377.78072634877446
274,165.85144309891365,89.99999086763009,391.85144309891365,375.9999908676301
275,106.38570665885118,75.8727990127924,272.3857066588512,387.87279901279237
276,293.207842611733,160.72304215368277,337.207842611733,211.72304215368277
276,42.6996603852581,203.19758684647456,181.69966038525808,334.19758684647456
276,319.85332388012756,185.57953838526228,362.85332388012756,252.57953838526228
277,2.900500560993123,34.26112750072758,206.90050056099312,330.2611275007276
277,299.5602886383444,106.08111940934117,499.5602886383444,333.08111940934117
277,19.257541011158366,109.08869626146156,262.25754101115837,329.08869626146156
277,259.92314622157534,143.63593960605834,389.92314622157534,331.63593960605834
278,279.049265852597,200.8201442088129,396.049265852597,296.8201442088129
278,108.06840136173687,229.66447596863188,189.06840136173687,270.6644759686319
278,129.23457211962895,207.85543780035925,165.23457211962895,261.85543780035925
278,329.1532837382544,170.26183084451785,381.1532837382544,270.2618308445178
278,277.06051833356895,200.86157081066773,301.06051833356895,271.86157081066773
279,27.832128600579836,93.2595331778582,494.83212860057984,260.2595331778582
279,24.64015850083937,123.71350515990997,89.64015850083936,155.71350515990997
280,130.72640279031373,245.31165928910917,161.72640279031373,278.3116592891092
280,232.04577142501856,240.90799266451893,271.04577142501853,279.90799266451893
280,356.6520498143164,247.92579773351588,395.6520498143164,286.9257977335159
281,45.74491819652104,12.931298595619438,299.74491819652104,406.9312985956194
282,7.7346752983914655,72.87369187384132,488.7346752983915,301.8736918738413
282,455.22963406495086,228.96026650860793,491.22963406495086,242.96026650860793
283,14.06548844976021,6.013181098836924,475.0654884497602,403.0131810988369
283,39.51727560856369,101.8744556719063,111.5172756085637,252.8744556719063
283,1.2917878147837492,41.92581001851195,32.291787814783746,325.9258100185119
284,210.65199679759343,144.65620635895698,317.6519967975934,337.656206358957
284,87.6907179330455,2.6067225014997746,258.6907179330455,341.6067225014998
285,195.00248836936976,122.99146796414695,370.00248836936976,332.991467964147
286,96.77268499628573,17.79863808940206,322.77268499628576,230.79863808940206
287,130.53070218429897,213.28421248482064,204.53070218429897,287.2842124848206
287,96.72980743572413,1.0521852803985894,480.7298074357241,333.0521852803986
288,323.05285531909936,117.83536950906898,500.05285531909936,215.83536950906898
288,175.86287121867161,151.41009066901134,194.86287121867161,222.41009066901134
288,197.99925004314957,154.99696546959603,219.99925004314957,218.99696546959603
289,-2.9579428721109196,139.5724432603115,405.04205712788905,334.5724432603115
289,219.52266077992635,147.3788341874151,442.52266077992635,307.3788341874151
289,110.5677017086989,122.13832894798085,242.5677017086989,291.1383289479809
289,144.3075667150265,167.09026567866417,248.3075667150265,274.0902656786642
290,431.92918932372123,272.4170460979724,461.92918932372123,324.4170460979724
291,50.39446941573976,15.540308232430675,489.39446941573976,370.5403082324307
292,213.96919359202911,431.72233025102605,374.9691935920291,499.72233025102605
293,69.7699499267907,89.19165066920553,378.7699499267907,307.1916506692055
294,70.9154969457862,11.386699732536727,303.91549694578623,503.3866997325367
294,298.09988543723784,342.74311693517666,373.09988543723784,499.74311693517666
295,239.9991686311539,81.32769356420039,402.9991686311539,503.3276935642004
295,158.27480770375266,27.234824628871678,321.2748077037527,460.2348246288717
295,26.929906066512373,112.24861145174634,221.9299060665124,397.24861145174634
295,5.564806993887032,43.41929590527597,64.56480699388703,100.41929590527597
295,377.7833472800164,90.62444084757152,402.7833472800164,139.62444084757152
295,153.7648109625924,87.10444901101705,236.7648109625924,119.10444901101705
296,247.66302397560133,127.33259703779305,358.66302397560133,319.33259703779305
296,76.02028380434615,86.6585184585671,233.02028380434615,313.6585184585671
296,105.67309324684302,278.56092102692384,138.67309324684302,327.56092102692384
296,1.1598149884295985,248.9245247158549,39.1598149884296,352.9245247158549
296,155.8775044113588,270.80243141952593,186.8775044113588,358.80243141952593
296,240.07866698780913,275.29399117793923,272.07866698780913,375.29399117793923
296,374.7933842369853,244.40579438074587,485.7933842369853,322.4057943807459
296,390.7204930273471,197.56558769617573,469.7204930273471,255.56558769617573
296,0.7104063501146669,217.3238562077293,90.71040635011467,306.3238562077293
296,1.0199853495079605,150.2293448856046,28.019985349507962,212.2293448856046
296,42.50395597381869,165.8776449882486,96.50395597381869,189.8776449882486
296,-2.4227815925696916,301.7238769662676,496.57721840743034,374.7238769662676
297,9.36717018758982,64.7913775069232,76.36717018758982,346.7913775069232
297,128.81578099766944,31.30373637101141,486.81578099766944,314.3037363710114
298,15.417443583052687,140.90855226965405,298.41744358305266,315.908552269654
298,283.27168744972636,147.8748822326698,474.27168744972636,219.8748822326698
298,-1.7254584747808224,92.88145452231817,497.2745415252192,375.88145452231817
299,51.763538499850426,-0.013398142794642354,376.7635384998504,373.98660185720536
299,147.35573622905036,101.430361955665,366.35573622905036,373.43036195566503
300,216.11018002553874,99.61823405423328,452.11018002553874,331.6182340542333
300,1.4979028356194988,3.913984941107401,282.49790283561947,329.9139849411074
301,-1.03465761247341,1.7436688602937807,449.96534238752656,325.7436688602938
302,448.4929630324362,77.13413229101627,499.4929630324362,334.1341322910163
302,317.7911775678596,77.43252803066612,371.7911775678596,173.4325280306661
302,315.9339522143152,114.32395299279113,363.9339522143152,215.32395299279113
302,237.6013295680034,88.7495106034317,361.6013295680034,372.7495106034317
302,102.17431299565152,90.65077437138083,172.17431299565152,280.65077437138086
302,143.43643117801776,91.52323280040085,201.43643117801776,253.52323280040085
303,2.5197255493301327,112.8944924293526,486.51972554933013,272.89449242935257
304,71.61920748956237,30.585370207306454,356.61920748956237,298.5853702073065
304,375.1207150946758,83.17742707591651,391.1207150946758,127.17742707591651
304,362.13973847254744,84.69793444833343,377.13973847254744,121.69793444833343
305,47.77299693804767,154.0189997424598,286.77299693804764,294.0189997424598
306,268.97165185706916,132.4716831931793,344.97165185706916,375.4716831931793
306,35.29684053199655,152.39306368279705,89.29684053199655,348.39306368279705
306,463.00081883273884,196.83212614218866,473.00081883273884,222.83212614218866
307,0.5494218343938257,53.57649686765933,388.5494218343938,375.57649686765933
308,202.33226749746908,203.01997489930653,245.33226749746908,315.01997489930653
308,104.06129652907038,55.56180216047581,153.06129652907038,118.5618021604758
308,112.78666059593778,123.75633770744221,145.78666059593778,174.7563377074422
309,92.8011959342146,47.00811689046152,138.8011959342146,156.0081168904615
309,52.421179692730135,-0.7897673052531502,377.4211796927301,497.2102326947469
310,230.9569862549106,124.83143870180649,342.9569862549106,336.8314387018065
310,300.5696165294521,183.51604828091968,406.5696165294521,339.5160482809197
310,175.89391363163944,186.76928825991268,285.8939136316394,336.7692882599127
310,-0.37183753324723057,29.015412828044447,155.62816246675277,336.0154128280444
311,168.86547978556393,72.14191787273157,279.86547978556393,234.14191787273157
311,266.92263056262163,77.51992897500278,371.92263056262163,237.51992897500278
311,462.09903886015627,214.965287390716,479.09903886015627,263.96528739071596
311,228.92707566225664,195.0512631879035,253.92707566225664,277.0512631879035
311,255.96960250549148,192.22053338882975,279.9696025054915,274.2205333888297
312,297.5461472449787,84.22162736018976,496.5461472449787,373.22162736018976
312,0.4671555725151961,121.04577295251846,258.4671555725152,375.04577295251846
313,122.7786892740283,195.64438671246825,341.7786892740283,390.64438671246825
313,114.78870833863579,184.62952944801057,159.7887083386358,286.62952944801054
313,35.03115455198621,178.94956924199673,68.03115455198622,266.94956924199676
313,63.03599327588641,190.35767549088837,87.03599327588641,269.35767549088837
313,83.8758507834802,208.71595801274538,106.8758507834802,265.7159580127454
313,108.12624225451748,178.24871583531137,129.12624225451748,262.2487158353114
314,24.290354547338723,0.24617154013390063,495.2903545473387,374.2461715401339
315,-1.7141245994118322,-1.3046582906974322,497.28587540058817,369.69534170930257
316,0.5188142393507604,93.40484128975862,254.51881423935077,374.4048412897586
316,222.66254201939097,1.7496907761240266,499.66254201939097,375.749690776124
317,27.75897128418184,0.03378862182790954,199.75897128418183,158.0337886218279
317,206.06859524008973,0.019265417539457985,339.06859524008973,258.0192654175395
317,292.01975311666996,52.34129789284057,360.01975311666996,267.34129789284054
317,27.616618873100748,168.42876551945568,391.6166188731007,488.4287655194557
317,56.6084465790147,202.06692643677252,315.6084465790147,437.0669264367725
317,403.48996509509124,0.9133879199082884,492.48996509509124,120.91338791990829
317,354.8158633623341,21.268381100780147,471.8158633623341,424.2683811007802
317,63.648816611019754,66.69075782424085,199.64881661101975,417.69075782424085
318,115.58611633770005,107.89245367670304,406.58611633770005,325.89245367670304
319,288.51543399897787,121.90844718138658,366.51543399897787,201.90844718138658
319,330.19487436048655,112.38295942522274,385.19487436048655,217.38295942522274
319,356.6771753547541,-0.23412497724532955,499.6771753547541,336.7658750227547
320,0.8277421510510408,87.68475527118144,462.82774215105104,398.6847552711814
320,325.3308184529012,55.13498525498517,480.3308184529012,401.13498525498517
320,181.0920673005253,101.53637988467065,312.0920673005253,161.53637988467065
321,272.88112359898196,116.92174067367341,501.88112359898196,374.9217406736734
321,1.0960001787897369,150.6322900377154,162.09600017878972,373.6322900377154
321,197.2201359563408,109.50141917467568,375.2201359563408,374.5014191746757
321,64.65382783127359,122.56679705984428,215.6538278312736,374.56679705984425
322,276.2004596638818,249.77026346301642,501.2004596638818,333.7702634630164
322,1.1736038837595117,289.7252469430067,198.1736038837595,332.7252469430067
322,233.97259074821415,121.30070944678079,381.97259074821415,251.3007094467808
322,357.01523174139743,51.521845837695906,499.01523174139743,334.5218458376959
322,7.482001398805522,42.806437239776045,255.48200139880552,334.8064372397761
323,173.45108495162256,62.82119732656207,335.45108495162253,447.82119732656207
323,97.90243361134452,7.237033014944416,496.9024336113445,443.2370330149444
324,2.6444790772642364,108.39839267848566,323.64447907726424,351.39839267848566
324,1.1039297948529878,63.56342233725769,218.103929794853,341.5634223372577
325,28.89443121828161,60.62412617927362,196.89443121828162,370.6241261792736
325,217.46262206528127,67.2993891236622,317.46262206528127,369.2993891236622
325,325.1088315369234,85.13292061382771,427.1088315369234,367.1329206138277
326,126.47002296158672,92.83049586471878,284.4700229615867,228.83049586471878
327,40.10717710815902,70.77566522911863,291.107177108159,425.77566522911866
327,52.804595591950495,384.95592758877825,72.80459559195049,391.95592758877825
327,1.1639201728466908,385.06660661212885,28.16392017284669,395.06660661212885
327,289.2251473309238,371.20420337314056,315.2251473309238,392.20420337314056
327,221.20176677041405,299.58877352585694,255.20176677041405,398.58877352585694
327,22.303559342099334,397.08313097512246,108.30355934209933,414.08313097512246
327,123.02288085243438,390.97703009244896,134.02288085243438,408.97703009244896
327,131.99605259399428,393.0039643108379,142.99605259399428,407.0039643108379
327,144.9881449784114,394.01364654136444,159.9881449784114,407.01364654136444
327,320.9921779605537,390.0694332968143,332.9921779605537,398.0694332968143
327,57.92864040229583,388.92494418634556,66.92864040229583,406.92494418634556
328,319.8060076927132,42.11013592920409,497.8060076927132,294.1101359292041
328,2.5680957471333272,136.72612475997255,345.5680957471333,310.72612475997255
328,-0.7711519727928362,66.57195558178975,498.22884802720716,373.5719555817898
328,457.07331822086076,59.020591668664764,479.07331822086076,126.02059166866476
329,2.100552247859582,151.43487886295281,316.1005522478596,373.4348788629528
330,99.07536397825729,150.58927112555006,235.0753639782573,444.58927112555006
330,113.96371807767707,279.0408827915123,241.96371807767707,482.0408827915123
331,172.6147058561566,11.793493655011844,269.6147058561566,361.79349365501184
332,242.8742726500014,172.9312234175664,337.8742726500014,374.9312234175664
333,207.4068255873819,146.91587210070674,502.4068255873819,375.91587210070674
333,65.6769786630681,42.714745559876036,334.6769786630681,376.71474555987606
334,56.19665788495968,31.08527803370191,481.1966578849597,401.0852780337019
335,7.523443657101424,168.51058213523163,146.52344365710144,336.51058213523163
335,107.08799833149769,197.418785665126,256.0879983314977,334.418785665126
335,225.370632786572,205.25663951159555,317.370632786572,336.25663951159555
335,310.5556948358699,202.0310778447303,448.5556948358699,336.0310778447303
336,342.50452323437884,148.09492238153098,392.50452323437884,252.09492238153098
336,117.90195736517865,209.24691063818494,178.90195736517865,361.24691063818494
336,79.31489835543336,128.51207370612818,176.31489835543334,183.51207370612818
336,37.551217367911775,168.1580730391887,101.55121736791178,279.1580730391887
336,265.29417742584377,27.228365983720806,318.29417742584377,180.2283659837208
336,336.15254899338123,0.7526280141223936,452.15254899338123,48.75262801412239
337,23.53496561139849,87.60373472508138,370.5349656113985,499.6037347250814
337,101.94963898795444,250.556531919139,159.94963898795444,430.556531919139
337,265.35277972973927,228.60816625368358,324.35277972973927,404.6081662536836
338,173.93350094424733,168.13983464959563,350.9335009442473,369.1398346495956
338,238.55104667678933,160.21184861055713,297.5510466767893,254.21184861055713
338,210.4246421842136,271.82955165962375,345.4246421842136,375.82955165962375
338,1.5437969530037137,262.79965649315517,73.54379695300372,365.79965649315517
338,78.8826773138093,197.30543466209195,148.8826773138093,229.30543466209195
338,329.4368400658189,194.0835320183098,433.4368400658189,306.0835320183098
338,427.47808530719794,152.80759787808125,499.47808530719794,375.80759787808125
338,52.21706033602533,215.39719548648884,284.2170603360253,375.39719548648884
339,205.49382543093319,78.65452566969671,268.49382543093316,115.65452566969671
339,13.986720492302837,67.66524244032006,131.98672049230282,139.66524244032007
339,1.7718062913874917,136.44410381186748,109.77180629138749,479.4441038118675
339,0.8521985461663419,106.11752223131931,44.85219854616634,136.1175222313193
339,58.96707858566873,100.45103496525303,308.96707858566873,503.45103496525303
339,6.606678535888619,51.347414442507215,308.6066785358886,500.3474144425072
340,291.25817269390717,198.82679516555072,342.25817269390717,369.8267951655507
340,5.11856622360807,5.356277774396233,496.11856622360807,378.35627777439623
341,72.2317106233275,19.796160177183054,450.2317106233275,335.7961601771831
341,176.71337807261236,14.172963624930176,249.71337807261236,41.172963624930176
342,332.71804862881174,126.42459163336613,469.71804862881174,169.42459163336613
342,-0.5194820300183096,89.7017012383661,296.4805179699817,169.7017012383661
343,5.926158331455753,-2.976628716444708,490.9261583314558,496.0233712835553
344,154.23093589874546,14.85599925845645,332.23093589874543,414.85599925845645
344,2.847681004035266,1.5197176088850597,208.84768100403528,403.51971760888506
345,108.25032063752468,3.114900740838465,489.2503206375247,369.1149007408385
346,438.6487237722411,92.75835287889498,499.6487237722411,226.75835287889498
346,432.8665160938832,74.08833969042934,497.8665160938832,124.08833969042934
346,-0.5251147116824058,91.1010861237404,187.47488528831758,288.1010861237404
346,108.10501820409462,28.819549689869632,241.10501820409462,252.81954968986963
346,196.4525726057807,176.988826745613,276.4525726057807,307.988826745613
347,79.14643119716513,66.01984301919563,207.14643119716513,292.0198430191956
348,152.33533341384532,192.31651106157932,332.3353334138453,390.3165110615793
348,214.64374093585144,175.5838010606189,274.64374093585144,297.5838010606189
348,22.89983878389007,268.67687718690354,52.89983878389007,348.67687718690354
348,84.10222537231732,277.3542855585736,106.10222537231732,358.3542855585736
348,91.88540559670267,282.2187232687437,121.88540559670267,366.2187232687437
348,119.0748973277384,275.67895473385,151.0748973277384,367.67895473385
348,290.95867468526137,250.81355086398258,311.95867468526137,277.8135508639826
348,318.05729213981954,250.8597805832839,333.05729213981954,284.8597805832839
348,320.047787943018,275.0136543122325,333.047787943018,365.0136543122325
349,35.39761155323963,35.28631910465694,143.39761155323964,252.28631910465694
349,334.919261818615,2.0208289544316926,402.919261818615,141.0208289544317
349,54.92652457018542,107.01207186635182,150.92652457018542,259.0120718663518
349,228.17958556496995,79.93240863310321,330.17958556496995,140.9324086331032
350,86.91363010177554,64.70463560691769,423.91363010177554,370.7046356069177
351,167.50438656946014,57.120116235309695,299.50438656946017,496.1201162353097
351,75.80233206716608,61.71073300200749,189.80233206716608,499.7107330020075
351,209.1345169877035,287.42521966686814,239.1345169877035,345.42521966686814
352,159.055994549263,2.046131648542797,503.055994549263,334.04613164854277
353,130.833421361656,20.060405171772345,261.833421361656,368.06040517177235
353,244.63727489559807,77.81442605526411,340.63727489559807,365.8144260552641
353,317.93045608755904,54.362914220822006,422.93045608755904,376.362914220822
353,5.588226087649673,66.81866879534024,156.58822608764967,375.8186687953403
353,442.38145217364996,62.7766832527781,481.38145217364996,195.7766832527781
353,433.4426997136474,200.32162305702713,499.4426997136474,376.3216230570271
353,400.9686366708953,72.18816929973157,420.9686366708953,108.18816929973157
353,405.7867531560885,67.98763155841092,439.7867531560885,191.98763155841092
354,3.46085218185047,9.359799565899024,491.46085218185044,238.35979956589904
355,153.4125773781148,102.46490607523953,373.4125773781148,217.46490607523953
356,222.8548766050639,288.21947342505644,266.8548766050639,322.21947342505644
356,196.79762980630085,312.16235471110525,246.79762980630085,349.16235471110525
356,251.20264671518873,267.9139655451344,282.20264671518873,290.9139655451344
357,19.59741931485638,135.8591603929855,82.59741931485638,268.8591603929855
357,93.21670777535877,152.76790581785593,132.21670777535877,263.76790581785593
357,146.34344650041422,132.8459783398662,187.34344650041422,261.8459783398662
357,186.34326630001846,134.84416634319524,252.34326630001846,273.84416634319524
357,237.54635008359833,145.72953845866246,312.5463500835983,273.72953845866243
357,284.44986175388107,165.03067179326592,373.44986175388107,278.0306717932659
357,175.1985108777249,179.98613212659498,199.1985108777249,236.98613212659498
357,402.0101769962614,199.2155702904797,430.0101769962614,288.2155702904797
357,421.7794285100176,196.0505269245135,445.7794285100176,283.0505269245135
357,1.1031034359150222,163.02184966189583,15.103103435915022,196.02184966189583
357,337.16756962801963,182.54288733666624,356.16756962801963,235.54288733666624
358,63.358802353737815,104.44278151406917,381.3588023537378,375.44278151406917
359,114.6269492069458,244.28383967371542,213.6269492069458,349.2838396737154
359,117.41949452016226,160.84943953475732,197.41949452016226,308.8494395347573
360,183.89562279325256,174.81658327273675,260.8956227932525,333.81658327273675
360,161.20230659795175,218.51054520852387,269.20230659795175,375.51054520852387
360,267.41779477119144,237.9432234775602,498.41779477119144,374.9432234775602
360,354.43066591850425,233.72583876799058,499.43066591850425,375.7258387679906
360,228.07577155961943,169.7127709647685,264.0757715596194,318.71277096476854
361,61.93540614969828,0.859044428026337,503.9354061496983,247.85904442802632
361,167.94378184771736,209.1907942229669,184.94378184771736,242.1907942229669
361,216.12814595464388,208.03638367999886,233.12814595464388,230.03638367999886
362,141.52997275882217,105.84668747614185,207.52997275882217,321.8466874761418
362,218.6885772367088,60.45287348925601,303.6885772367088,317.45287348925604
362,320.35073901654306,71.58877070841683,438.35073901654306,328.58877070841686
362,-0.41864428149001753,128.07418879269846,153.58135571851,262.07418879269846
362,288.71941788664833,47.133247289051525,500.71941788664833,328.1332472890515
363,394.56359130615385,78.07947314333612,491.56359130615385,322.07947314333614
363,217.6909754069685,76.66119401189479,314.6909754069685,323.6611940118948
363,53.64694638064864,126.09148669486908,155.64694638064864,325.0914866948691
364,38.71468380459222,6.779135613404286,87.71468380459223,74.77913561340429
364,192.85478079263834,113.05711343256819,212.85478079263834,139.0571134325682
364,247.09610458859916,222.95275605099005,257.09610458859913,241.95275605099005
364,268.0427712200765,212.85742783479407,277.0427712200765,228.85742783479407
364,219.9216904142964,140.19639710858556,233.9216904142964,161.19639710858556
364,209.11115813955175,126.1337160694683,223.11115813955175,151.1337160694683
364,339.16666386812886,212.21860942607222,370.16666386812886,237.21860942607222
364,306.98512137559214,211.98602564970227,319.98512137559214,223.98602564970227
365,302.45254491625553,45.553836736992054,454.45254491625553,348.553836736992
365,48.49459615948723,41.75104703726274,253.49459615948723,363.75104703726277
365,3.8024065004946124,5.142535052242465,292.8024065004946,369.14253505224247
365,390.0449756208165,1.9093018234014068,501.0449756208165,162.9093018234014
366,234.7333238007579,56.67372389734717,497.7333238007579,372.67372389734714
366,63.70437358941567,72.93063483681942,366.7043735894157,375.9306348368194
366,86.40451678691963,0.8843639651341277,265.40451678691966,195.88436396513413
366,301.47195621797476,3.0698387221472387,493.47195621797476,268.0698387221472
366,353.8250077409682,118.69544635823706,499.8250077409682,302.69544635823706
366,0.3678472251737972,128.0384946134938,77.36784722517379,374.0384946134938
366,1.4806164666447046,32.05584698897573,106.4806164666447,203.05584698897573
366,38.588479401867545,100.9945045192849,109.58847940186754,200.9945045192849
366,36.82802069210426,186.68280452414183,114.82802069210426,373.68280452414183
366,193.93813977944603,158.2934835309502,424.93813977944603,375.2934835309502
366,459.09190867161846,103.98390059955963,500.09190867161846,212.98390059955963
367,2.2919410220492153,189.76953936998476,150.29194102204923,299.7695393699847
367,19.632616192704987,118.25262651544705,104.63261619270499,270.25262651544705
368,193.4606224926004,1.8014805475274258,373.4606224926004,94.80148054752743
368,125.30340074491124,97.67575536961158,336.30340074491124,333.6757553696116
368,139.6786033364101,107.4136854443322,362.6786033364101,333.4136854443322
369,112.67296264836062,25.895606806861906,375.6729626483606,497.8956068068619
370,160.76499268871245,70.02337970591091,243.76499268871245,338.0233797059109
370,215.51926387618084,95.28345739269278,313.51926387618084,338.28345739269275
371,-1.0852337570011343,195.50710490897745,497.9147662429989,376.50710490897745
371,77.06883786721909,0.1367581233865991,259.0688378672191,239.13675812338658
371,0.7359930313143082,74.10765074333048,48.73599303131431,226.10765074333048
371,167.66541227352894,25.84867295978455,299.66541227352894,205.84867295978455
371,308.0592110088577,40.82617590332151,465.0592110088577,217.8261759033215
371,452.2572011408162,47.05219591950706,486.2572011408162,105.05219591950706
371,407.7060564939934,49.366955196984776,472.7060564939934,155.36695519698478
371,263.8243646498122,39.321416767529726,322.8243646498122,169.32141676752974
371,326.0700894409829,41.91496677525127,357.0700894409829,90.91496677525127
371,-1.7991112011885662,192.93589975790456,497.20088879881143,375.93589975790456
372,177.37991250808523,128.2956953038604,418.3799125080852,293.2956953038604
373,116.64716249032784,57.68436003633374,476.64716249032784,311.6843600363337
373,186.04542789190208,48.30914761459114,329.0454278919021,120.30914761459114
374,404.44216534347635,94.96638867550982,498.44216534347635,309.96638867550985
374,220.1944649287085,50.5720681524258,437.1944649287085,374.5720681524258
374,18.167479715795153,91.68285008558317,162.16747971579514,366.68285008558314
375,123.89674651414865,124.68806270165638,278.8967465141486,297.68806270165635
376,264.07221857000513,54.84190483482209,423.07221857000513,377.8419048348221
377,71.40104435710131,149.00215377676878,126.40104435710131,228.00215377676878
377,384.3353524429609,163.36678942954129,468.3353524429609,284.3667894295413
377,105.53669381388139,238.6218203762807,278.53669381388136,347.6218203762807
377,28.04062134694712,270.39714566420696,107.04062134694712,368.39714566420696
377,357.422815644024,222.40331807216018,485.422815644024,346.4033180721602
378,370.4575191572203,258.58830175822794,434.4575191572203,400.58830175822794
378,290.1785909838111,261.6757939687187,357.1785909838111,399.6757939687187
378,207.4293009419351,249.9987208156848,279.42930094193514,398.9987208156848
378,58.98181375903505,248.78144934136037,82.98181375903505,279.78144934136037
378,160.81077939707902,276.125127132432,209.81077939707902,400.125127132432
378,89.27807118215634,245.96120618782712,118.27807118215634,265.9612061878271
378,50.22622598442534,240.15461202675377,73.22622598442534,266.15461202675374
378,121.36489132814108,49.897227924871686,164.36489132814108,204.8972279248717
378,262.8898019591846,147.81226161719627,327.8898019591846,209.81226161719627
378,448.5134242656367,183.97480032170796,500.5134242656367,208.97480032170796
378,480.9291166467743,173.97877237196602,493.9291166467743,191.97877237196602
378,462.05029434013517,173.01775767548463,477.05029434013517,195.01775767548463
378,449.0316273560745,184.10512152120677,465.0316273560745,197.10512152120677
378,471.09715592826547,136.23174007772622,500.09715592826547,160.23174007772622
378,324.97176731402897,194.94237747618942,352.97176731402897,204.94237747618942
378,451.0405654227922,186.09494133022423,459.0405654227922,196.09494133022423
378,369.7546486836773,140.93693787739218,399.7546486836773,153.93693787739218
378,410.04938110283246,143.05217347386917,432.04938110283246,152.05217347386917
378,430.790209875439,140.9181509203698,452.790209875439,152.9181509203698
378,450.9541990283363,138.90763518253033,471.9541990283363,151.90763518253033
379,23.053142770603472,8.16418233582624,442.0531427706035,372.16418233582624
380,38.529079812326515,96.67942587849201,94.52907981232651,136.679425878492
380,397.84119943153775,97.96335153202646,454.84119943153775,126.96335153202646
380,6.847892676256542,95.19552595467248,48.84789267625654,119.19552595467248
380,158.97344344117502,66.21390206648829,199.97344344117502,104.21390206648829
380,245.6639623518859,37.33123790634855,321.6639623518859,153.33123790634855
380,310.57064531774887,51.104296621381195,361.57064531774887,182.1042966213812
380,360.21021484491735,56.89484170311715,409.21021484491735,166.89484170311715
380,470.0025739212397,61.63485086792073,500.0025739212397,188.63485086792073
380,10.376493378516358,87.3132030331411,308.37649337851633,356.3132030331411
380,101.1416391423566,91.1255112409176,116.1416391423566,129.1255112409176
380,113.89010625772485,88.39848020299986,126.89010625772485,129.39848020299985
380,13.026160033297785,88.70947240735137,24.026160033297785,128.70947240735137
380,6.958329165045564,96.6723784385666,17.958329165045562,131.6723784385666
380,0.998189579510246,107.99876019155492,9.998189579510246,132.99876019155494
380,435.7762521126395,101.00833834088917,474.7762521126395,126.00833834088917
381,14.79725606689513,156.08215996181266,471.7972560668951,291.08215996181264
382,226.53735510523973,277.24676419056624,319.5373551052397,429.24676419056624
382,124.60187575492347,217.51717775681607,201.60187575492347,282.51717775681607
383,-0.30424570310947274,9.908158936050825,281.6957542968905,334.9081589360508
383,-3.134333074711293,127.74206334138725,495.8656669252887,334.7420633413873
384,282.3105952562257,152.92578772291935,487.3105952562257,349.9257877229194
384,0.2869525920205831,-0.8061477776388983,268.2869525920206,348.1938522223611
385,222.8107980980348,218.4067408380867,335.8107980980348,479.4067408380867
385,286.6508484915222,132.33239911254105,334.6508484915222,224.33239911254105
385,1.495346528610412,188.77752193710484,169.4953465286104,406.77752193710484
385,1.7582573563954895,109.54239393406189,149.7582573563955,305.5423939340619
385,-1.773809928621489,108.1409144819915,332.2261900713785,501.1409144819915
386,139.5660202045891,293.69740705354013,305.5660202045891,429.69740705354013
386,28.059001872282074,266.0112516704812,62.059001872282074,281.0112516704812
386,47.92801549556408,268.8822244463364,91.92801549556408,280.8822244463364
386,140.07204844533862,264.85939373533773,155.07204844533862,279.85939373533773
386,253.92644711125922,266.04473346504386,281.9264471112592,278.04473346504386
386,266.01081117017003,244.0915943116709,286.01081117017003,257.09159431167086
386,212.91566652002388,240.0054320731049,231.91566652002388,257.0054320731049
386,36.146410804802834,250.1594573226646,52.146410804802834,269.1594573226646
387,151.28841808828076,3.6640633781639167,499.28841808828076,377.6640633781639
388,470.20262706458846,79.93907261685519,500.20262706458846,196.93907261685519
388,475.22014910841045,43.76967009214154,500.22014910841045,141.76967009214155
388,82.0134557165409,53.873178047732125,295.0134557165409,377.87317804773215
388,238.7725812142436,59.33349955609225,392.7725812142436,229.33349955609225
388,238.83373237773174,222.92750433565715,331.83373237773174,316.92750433565715
388,285.32988178206415,116.22102454104979,434.32988178206415,290.2210245410498
388,96.51314495822504,102.42370316066604,265.51314495822504,174.42370316066604
389,252.71881667620852,307.09781750412753,365.7188166762085,466.09781750412753
389,62.38433973491689,173.5310825819111,281.3843397349169,500.5310825819111
389,16.578684332775005,128.46193766257807,99.578684332775,302.46193766257807
390,200.5841476935024,116.78804970594342,288.58414769350236,257.7880497059434
390,231.17555171983804,31.695665628833176,292.17555171983804,90.69566562883318
390,161.2588855055874,68.7060574288204,355.2588855055874,372.7060574288204
390,20.4802271091298,230.88529641798527,173.4802271091298,375.8852964179853
391,89.69961637642649,95.82936506871948,445.6996163764265,453.8293650687195
392,208.7266976784813,190.16342559082867,305.7266976784813,255.16342559082867
392,260.73561612978597,206.56686641976927,388.73561612978597,269.56686641976927
392,296.4637115895911,137.77172679039316,372.4637115895911,267.77172679039313
392,244.1365572268095,130.99410579855865,309.1365572268095,249.99410579855865
392,364.9693259628908,115.60998560126842,388.9693259628908,210.60998560126842
393,89.8688071663567,34.30206664852798,431.8688071663567,362.302066648528
394,74.8916784934072,99.95757636572796,485.8916784934072,480.95757636572796
395,1.79850532648517,183.31749309977593,89.79850532648517,314.3174930997759
395,425.7267715153884,188.28251389421501,475.7267715153884,233.28251389421501
395,116.78557259600473,161.3855194780671,409.7855725960047,269.38551947806707
396,99.8822280627559,14.974622950043994,362.88222806275587,372.974622950044
396,417.6634357683528,1.9735720842016349,500.6634357683528,257.97357208420163
396,87.95719950741852,224.31272938079758,347.9571995074185,373.3127293807976
397,0.9178080625673175,31.246239982112655,236.9178080625673,260.2462399821127
398,107.3136679032338,93.31798161514868,250.3136679032338,375.3179816151487
398,228.94157615633463,225.8883618775537,244.94157615633463,264.88836187755373
399,-0.8975518133469507,63.06930053542587,250.10244818665305,299.0693005354259
399,218.51767842631438,111.66546460444897,500.5176784263144,339.66546460444897
400,173.95464189691154,42.61669827578697,392.95464189691154,313.616698275787
401,30.70652278508112,-0.9285718075462199,482.7065227850811,217.07142819245377
401,166.72482765668957,110.01666618166064,203.72482765668957,252.01666618166064
401,203.67730728488047,124.53442045916051,243.67730728488047,253.53442045916051
401,253.26979788401917,128.02601275132668,299.26979788401917,262.0260127513267
401,480.07041897242885,138.64015550271955,498.07041897242885,178.64015550271955
402,202.0553364105894,127.64989052800652,430.0553364105894,271.6498905280065
403,46.70490381906495,19.95262886437179,373.70490381906495,218.95262886437177
404,128.35415489973076,89.22858107810879,334.35415489973076,502.2285810781088
404,-0.7161610802691882,160.12715403745284,272.2838389197308,498.12715403745284
404,32.109411402968476,329.74681606839704,229.10941140296848,498.74681606839704
405,70.2579541431204,92.48098125157932,228.2579541431204,277.48098125157935
405,143.6004917252865,71.73852054315529,187.6004917252865,205.7385205431553
406,21.575947873125557,19.3085957676046,266.57594787312553,402.30859576760463
406,255.8354996372326,27.440510947520067,490.8354996372326,398.44051094752007
407,249.30931282055514,69.65068013126486,501.30931282055514,333.65068013126483
407,-0.5056226082444653,69.3350855473183,222.49437739175553,333.3350855473183
407,128.87294968514135,113.15564780485963,220.87294968514135,332.15564780485965
407,157.88907796941805,143.83909706164337,501.88907796941805,334.8390970616434
407,335.2485327825553,246.4694795089177,364.2485327825553,305.4694795089177
407,448.831151261207,260.1303280793004,492.831151261207,314.1303280793004
408,3.9876027821956086,100.87043307661949,447.9876027821956,290.8704330766195
409,181.10143117648124,-0.2535527140279612,319.10143117648124,353.74644728597207
409,75.92799344492732,1.9617352316438144,213.92799344492732,305.96173523164384
409,-2.771373311229496,-1.668019957992783,496.22862668877053,372.3319800420072
410,111.61770345107513,106.42593358660662,181.61770345107513,170.42593358660662
410,383.52653090001274,138.28397203382897,499.52653090001274,249.28397203382897
410,351.1553149384686,103.9886885800881,404.1553149384686,125.9886885800881
410,248.0716826934385,105.00413635088641,278.0716826934385,126.00413635088641
410,84.32761045388553,113.25134948328713,125.32761045388553,145.25134948328713
410,4.789578536904944,117.29081365624049,32.78957853690494,148.2908136562405
410,98.5924458279691,39.950146568137654,267.5924458279691,371.95014656813765
411,0.11315479329292089,140.9933422553715,132.11315479329292,364.9933422553715
411,141.63751855291773,133.81238859227048,243.63751855291773,281.8123885922705
411,286.0973103943564,136.15770632685525,384.0973103943564,297.15770632685525
411,219.93492834728374,89.83887961094717,373.93492834728374,217.83887961094717
411,35.17606226132676,5.615948746557962,72.17606226132676,74.61594874655796
411,232.89291031855606,107.8391050484897,281.89291031855606,152.8391050484897
412,264.34808290694934,123.5646182348639,418.34808290694934,283.56461823486393
412,123.53575083018524,108.1647475135448,279.53575083018524,285.1647475135448
412,2.437658791585349,102.64083843515459,179.43765879158536,375.6408384351546
412,435.8358976494665,198.40970305338783,459.8358976494665,283.40970305338783
412,373.8996301862185,113.22642205473358,423.8996301862185,212.22642205473358
412,442.881884992352,140.92690956432747,469.881884992352,197.92690956432747
412,463.20741517748695,150.723054594756,495.20741517748695,195.723054594756
412,71.31948302657861,265.27009306447394,504.3194830265786,374.27009306447394
412,126.14194157980603,142.94589448708066,156.14194157980603,179.94589448708066
412,0.4681559758665692,102.48983898298835,56.468155975866566,170.48983898298835
412,219.08935089046543,148.1140943800012,250.08935089046543,177.1140943800012
412,258.1451962013601,156.15013670352744,277.1451962013601,186.15013670352744
413,118.02016870753934,23.930998521560866,297.02016870753937,440.93099852156087
414,75.86008233713173,73.23991124018329,363.86008233713176,480.2399112401833
415,227.04835475000954,86.09537308643056,499.04835475000954,339.0953730864305
415,-0.6945355965875422,69.8174979771461,258.30546440341243,338.8174979771461
416,335.9949824450203,149.52183721249926,415.9949824450203,217.52183721249926
416,329.68868274867646,94.70622169107583,413.68868274867646,160.70622169107583
416,229.7830751179438,153.0947690041511,263.7830751179438,181.0947690041511
416,195.21670175611192,95.25225742796354,237.21670175611192,179.25225742796354
416,32.19048266816873,159.6799599788272,112.19048266816873,207.6799599788272
416,1.7966259674642941,201.17165505844946,123.7966259674643,311.17165505844946
417,39.788960635753966,48.986031121723784,304.78896063575394,443.9860311217238
418,14.641439535147754,269.6621799259766,503.64143953514775,375.6621799259766
419,304.3198873215237,159.3903807411664,417.3198873215237,339.3903807411664
420,53.81530234086311,311.6665392218784,110.81530234086311,489.6665392218784
420,44.409576756915115,393.02871093237286,111.40957675691511,500.02871093237286
420,120.98383700526784,316.6289093355741,150.98383700526784,391.6289093355741
420,95.08248539923781,324.0553602707997,111.08248539923781,353.0553602707997
420,110.93750220503827,322.34780265635015,124.93750220503827,371.34780265635015
420,178.0010373081802,319.07105043459495,187.0010373081802,354.07105043459495
420,166.9404603791088,319.85301472704236,173.9404603791088,340.85301472704236
421,37.4214609410148,88.49164936425706,482.4214609410148,377.49164936425706
422,336.04011019976804,208.4535750614254,500.04011019976804,373.4535750614254
422,165.5619491548884,157.97212226807216,305.5619491548884,369.97212226807216
422,73.02071466865851,92.48160954952425,287.0207146686585,374.48160954952425
423,3.5152496764526404,119.08940963673078,391.51524967645264,234.08940963673078
423,317.7149262282197,144.68273628298368,500.7149262282197,205.68273628298368
423,472.1141679490709,197.780024564295,489.1141679490709,240.780024564295
423,480.8788403435675,197.9551260450534,494.8788403435675,234.9551260450534
423,437.9543852825393,191.7890226046572,446.9543852825393,216.7890226046572
423,447.9698117213854,194.21444332303238,455.9698117213854,217.21444332303238
424,0.08342380547158257,279.2030911195928,141.08342380547157,375.2030911195928
424,103.09024307405497,193.2998079989606,209.09024307405497,358.2998079989606
424,201.67288462792953,194.84128552416638,320.67288462792953,369.8412855241664
424,273.8378961280564,185.12902692276083,372.8378961280564,332.12902692276083
424,154.60542777239175,182.17061709940234,260.60542777239175,327.1706170994023
424,288.6131011549151,183.7366362748621,373.6131011549151,307.7366362748621
424,299.0842721406826,153.59492248182008,313.0842721406826,198.59492248182008
424,101.45826283859921,196.8806960023336,369.45826283859924,374.8806960023336
425,146.68047230260038,58.118027464797535,261.6804723026004,306.11802746479754
425,259.9035163113718,92.44958058312383,333.9035163113718,299.44958058312386
425,328.83230659794265,120.66422601466476,393.83230659794265,300.6642260146648
425,406.4367799316992,184.47046180547738,468.4367799316992,333.4704618054774
425,52.22427746368395,237.33930156285135,76.22427746368395,281.33930156285135
425,83.9295799312888,238.61786609110254,111.9295799312888,297.61786609110254
425,28.912564622543407,239.8444778394295,48.91256462254341,277.8444778394295
425,105.12038862107957,52.9324855885572,179.12038862107957,302.9324855885572
425,459.9717171648606,241.6871030134086,482.9717171648606,314.6871030134086
425,486.11486292341056,236.28216207865154,500.11486292341056,313.28216207865154
426,1.2331761688450626,33.65491899097623,334.23317616884503,498.6549189909762
427,87.19977585857879,73.41156693399364,262.1997758585788,239.41156693399364
428,52.06137811832883,36.78172323527471,396.06137811832883,374.78172323527474
429,422.0292196844258,153.94932794023558,430.0292196844258,173.94932794023558
429,225.19345307433647,204.13978195625748,264.1934530743365,309.1397819562575
429,267.27317887078385,156.68784814707163,313.27317887078385,298.68784814707163
429,210.24505584650254,163.1351320324245,261.2450558465025,222.1351320324245
429,221.12113014228274,155.7523717804933,262.1211301422827,294.75237178049326
429,252.73116795448192,142.05694507887407,284.7311679544819,288.05694507887404
429,154.50818437414296,138.8153493928987,210.50818437414296,306.8153493928987
430,64.46129174896151,166.5341030683789,264.4612917489615,264.5341030683789
430,374.47831764195615,3.8674450598902297,500.47831764195615,405.8674450598902
431,358.8427565042928,46.085511038944446,477.8427565042928,307.08551103894445
431,364.2386769064581,194.92046832075812,397.2386769064581,327.9204683207581
431,0.29849583286554093,162.08592912419616,164.29849583286554,332.0859291241961
431,215.71091245921718,146.88910917249328,421.7109124592172,324.88910917249325
431,112.14832216755639,13.814749543077141,261.1483221675564,324.81474954307714
431,63.157438474105135,110.14032885154879,96.15743847410513,230.1403288515488
431,53.69654961249793,224.73634815844247,156.69654961249793,326.73634815844247
431,190.1679032834803,221.21355237289185,238.1679032834803,325.21355237289185
432,20.380671019150597,41.823615595085556,160.3806710191506,315.8236155950856
432,125.63727612621699,2.4182732693753906,498.637276126217,329.4182732693754
433,78.79666477166856,57.77343357596675,330.7966647716686,394.77343357596675
433,1.0560244522327995,167.06071882081935,14.0560244522328,203.06071882081935
434,368.2481548680446,87.13387510433219,402.2481548680446,223.1338751043322
434,424.29838075357,91.44647644984602,463.29838075357,227.44647644984602
434,405.0180302128038,196.00261373569953,438.0180302128038,214.00261373569953
434,286.17750477682426,145.66325473427625,305.17750477682426,212.66325473427625
434,29.737169825209236,174.66040641680735,297.7371698252092,236.66040641680735
435,191.73296868981527,36.03061212161171,387.73296868981527,373.03061212161174
436,99.03829179366693,180.7576568119964,315.03829179366693,370.7576568119964
436,-1.712824842964011,1.8233879225300882,459.287175157036,375.82338792253006
437,134.37307956784667,59.069288169023906,502.3730795678467,307.06928816902393
437,37.987977286072635,3.1118137465114444,501.98797728607263,335.1118137465114
438,270.01393951764123,128.90849801630645,399.01393951764123,291.90849801630645
438,0.7736811301932391,87.48937162543174,97.77368113019324,321.4893716254318
438,1.5211869857976978,201.88873950289673,151.5211869857977,333.8887395028967
438,430.6832770897905,231.27689260585328,500.6832770897905,274.2768926058533
438,394.8525821208422,234.66325928875472,426.8525821208422,280.6632592887547
439,1.2140957123276053,3.854195114045609,251.2140957123276,296.85419511404564
439,180.24456475140346,16.358578313011606,324.24456475140346,274.3585783130116
439,301.2183486111046,102.56054202455724,389.2183486111046,251.56054202455724
439,347.0954260456693,125.17374287760296,449.0954260456693,243.17374287760296
439,430.7671218447937,156.96709283169477,470.7671218447937,226.96709283169477
439,432.5231075453763,80.96359822126504,498.5231075453763,199.96359822126504
440,113.91710602911907,194.75437839265885,131.91710602911905,229.75437839265885
440,104.9479774301807,199.72434579003485,114.9479774301807,228.72434579003485
440,122.57789828814327,25.958077782159563,468.5778982881433,287.95807778215953
441,101.093249498761,2.392709057377459,496.093249498761,311.3927090573775
442,59.32797907178406,110.45610132502028,398.32797907178406,357.4561013250203
443,14.671767828011184,4.387668549921727,477.6717678280112,492.3876685499217
444,11.572884930888321,3.962164627856936,237.57288493088834,374.96216462785696
444,213.66254201939097,1.7496907761240266,490.66254201939097,375.749690776124
445,143.1211049215442,48.184114493683296,308.1211049215442,473.1841144936833
446,91.16162586760325,40.11701769603408,281.1616258676032,331.11701769603405
446,277.8410856708112,26.885477808501008,301.8410856708112,50.88547780850101
446,301.43426862730945,88.23268707699441,382.43426862730945,199.2326870769944
446,384.77451281794947,33.131973621390735,414.77451281794947,51.131973621390735
446,100.19176680784985,58.63847193942577,131.19176680784983,106.63847193942577
447,96.05411171027166,138.25271044237184,314.0541117102716,376.25271044237184
448,404.849297073296,159.6828976246732,491.849297073296,259.68289762467316
448,-0.5780733105262783,174.35894654090455,205.4219266894737,333.3589465409045
449,62.258329694880615,56.071719053684916,218.25832969488062,302.0717190536849
449,201.76732905828845,44.85314129242917,353.76732905828845,297.8531412924292
450,251.85571748159248,259.1419347736835,279.8557174815925,345.1419347736835
450,192.31864222753902,270.40828941854244,225.31864222753902,356.40828941854244
450,95.09903886015626,207.965287390716,112.09903886015626,256.96528739071596
450,51.033822120303036,201.2287231835263,69.03382212030303,241.2287231835263
450,14.058542788657846,234.87954642034225,40.058542788657846,261.87954642034225
450,164.0930825555088,231.00690608208157,183.0930825555088,286.00690608208157
450,207.87413155670555,224.87444991864615,231.87413155670555,282.8744499186462
450,219.83549751076106,226.3311498772069,239.83549751076106,272.33114987720694
450,329.81948662702854,212.36977682392708,348.81948662702854,257.36977682392705
450,15.121038618804437,208.0767676912956,35.121038618804434,242.0767676912956
450,183.06282306540854,167.9034448587887,192.06282306540854,186.9034448587887
450,193.00997381149799,165.14974732379514,201.00997381149799,185.14974732379514
450,206.92298981409965,169.76367022347404,215.92298981409965,193.76367022347404
450,338.996633882352,170.0070898977956,348.996633882352,195.0070898977956
450,347.02912658943956,175.9227670606931,357.02912658943956,197.9227670606931
450,366.99316853862376,173.90225148198166,377.99316853862376,196.90225148198166
450,440.9996737974437,173.923766351137,449.9996737974437,195.923766351137
451,112.54568424711826,124.61663563681051,360.5456842471183,253.6166356368105
452,1.6789158951343381,15.65980923936894,230.67891589513434,305.65980923936894
453,446.66450497877736,115.01514170512874,497.66450497877736,246.01514170512874
453,350.69900490552243,102.73782394743725,442.69900490552243,247.73782394743725
453,138.4172047306316,76.83076401841552,257.4172047306316,345.8307640184155
453,79.78972899461688,99.04568227097562,164.7897289946169,374.0456822709756
453,145.31369030256602,98.45470554798891,202.31369030256602,205.4547055479889
453,123.38558012215427,114.48729809999645,176.38558012215427,318.48729809999645
453,33.70215128380272,113.8807004223533,94.70215128380272,374.8807004223533
453,15.184024217390132,115.17908860116,78.18402421739013,376.17908860116
453,225.05885441368983,125.98830006044483,282.0588544136898,243.98830006044483
454,62.16445286344876,20.935162448364224,372.1644528634488,499.9351624483642
455,95.64979641795651,-0.7903543712824046,499.6497964179565,361.20964562871757
456,97.08619314346316,2.3220179606636577,328.08619314346316,501.32201796066363
457,5.587611592291978,36.26467688252555,504.587611592292,372.2646768825256
457,391.61200879296166,165.59450589041316,446.61200879296166,250.59450589041316
458,13.29750957204476,4.252531924179024,500.29750957204476,142.25253192417904
459,103.32686928605932,74.32099777982944,195.32686928605932,120.32099777982944
459,-0.6342229742317897,35.846634786176764,296.36577702576824,334.84663478617676
459,349.0826099555684,91.60796612155403,499.0826099555684,331.607966121554
460,2.739668832323389,95.84427516858298,501.7396688323234,333.84427516858295
460,135.01957133368967,143.25283022453317,278.01957133368967,288.25283022453317
460,13.457605779634434,38.74109838593148,61.457605779634434,98.74109838593148
460,9.957638116926908,12.69935839913866,53.95763811692691,77.69935839913866
461,229.33457267644297,166.43565685286387,422.334572676443,375.4356568528639
461,286.165727201673,151.91167210079539,322.165727201673,181.91167210079539
461,233.30383539633408,157.03212731882167,268.3038353963341,181.03212731882167
461,180.6641559377806,156.9364100834765,215.6641559377806,183.9364100834765
461,327.14082784912154,136.1908907566705,431.14082784912154,205.1908907566705
462,0.2932931639304499,72.84167246601771,77.29329316393046,221.8416724660177
462,117.13735028396616,63.82819868722777,176.13735028396616,267.82819868722777
462,189.4066298558818,44.423804024349096,293.40662985588176,322.4238040243491
462,239.58913962838443,37.26040002105583,293.58913962838443,261.26040002105583
462,168.90721802947016,105.16508294451216,201.90721802947016,289.16508294451216
462,369.3350498616336,59.3168260934699,449.3350498616336,264.3168260934699
462,14.989564761930495,79.13519116274502,78.9895647619305,116.13519116274502
462,274.59668978126695,1.5079963755254795,499.59668978126695,239.50799637552547
463,36.270843086315296,4.876816838285009,291.27084308631527,393.876816838285
463,23.61403242371179,117.01697027132786,300.6140324237118,390.01697027132786
464,-1.527680234425901,-0.6732433582953945,497.47231976557407,373.3267566417046
464,366.51855334508247,121.07564661474024,499.51855334508247,376.0756466147402
465,50.63634237365247,240.32334357459894,287.6363423736525,378.32334357459894
465,67.98021843990017,191.21547259261433,234.98021843990017,355.21547259261433
465,192.2438319152345,2.1264251348752907,276.2438319152345,152.1264251348753
465,90.1793439541037,1.681807382090625,182.1793439541037,151.68180738209062
465,0.9756103347892928,1.6531750462879842,30.975610334789295,102.65317504628798
465,277.97724364733,0.1610465463453039,299.97724364733,150.1610465463453
465,30.21328420699173,6.928395231490811,105.21328420699173,186.9283952314908
466,358.1917713652294,47.79297920842373,452.1917713652294,145.79297920842373
466,320.3223559616248,153.82513949792713,500.3223559616248,372.8251394979271
466,7.474258456163774,126.04857432607056,84.47425845616377,258.0485743260706
466,147.2777746800714,165.7324379866945,308.2777746800714,375.7324379866945
467,36.28427968220416,83.57965813315133,460.28427968220416,293.5796581331513
467,420.538145060926,165.25330625185475,483.538145060926,199.25330625185475
467,479.8866492294857,173.93546938363608,499.8866492294857,203.93546938363608
467,1.0844277325459268,186.003190732501,14.084427732545926,202.003190732501
468,69.2792487592647,49.03224489618185,416.2792487592647,378.03224489618185
469,110.286700973521,226.16106960145277,148.286700973521,343.16106960145277
469,169.11386496392032,229.75129678946922,204.11386496392032,324.7512967894692
469,120.20578732134362,87.09934982535782,338.2057873213436,360.0993498253578
470,258.8379175446918,28.4068607521194,341.8379175446918,337.4068607521194
470,191.2971097254402,16.41614657437927,267.29710972544024,302.41614657437924
470,58.82672187522151,151.2021169934865,78.82672187522151,228.2021169934865
470,78.11934395313337,154.0148845831853,97.11934395313337,228.0148845831853
470,92.78979687335905,135.79227869612,117.78979687335905,172.79227869612
470,65.98354992082677,134.34986316593069,93.98354992082677,174.34986316593069
471,139.23904444091906,161.1205480940772,328.2390444409191,375.1205480940772
471,194.04008071447504,148.15641471231606,320.04008071447504,373.15641471231606
471,408.75126613949357,46.47681669632588,448.75126613949357,156.4768166963259
471,399.77335932088795,49.01482355615754,422.77335932088795,139.01482355615752
471,441.9728661847195,48.910021592399495,470.9728661847195,71.91002159239949
471,360.6655186404751,8.984452866030779,406.6655186404751,232.98445286603078
472,47.90391322588766,39.926608897967895,390.90391322588766,330.92660889796787
472,438.09827953460575,132.95359761151175,500.09827953460575,305.9535976115118
473,0.9877730573281625,4.647584003258345,106.98777305732816,378.6475840032583
473,274.8801452867394,71.28063118071549,445.8801452867394,309.2806311807155
473,256.0877682708507,38.17905336584329,324.0877682708507,159.1790533658433
473,176.20509966075068,120.26760867898264,270.20509966075065,249.26760867898264
473,87.2908339800046,103.82916391956405,211.2908339800046,220.82916391956405
473,76.53764287737785,107.48065854706769,160.53764287737783,204.4806585470677
473,428.6934822103757,238.88828679303128,472.6934822103757,315.8882867930313
473,31.604751189626427,196.60455182048298,499.6047511896264,373.604551820483
474,131.26531370461458,89.80668554559372,222.26531370461458,235.80668554559372
475,-1.527680234425901,-0.6732433582953945,497.47231976557407,373.3267566417046
475,335.5778019080091,1.7882649711897614,501.5778019080091,331.78826497118973
476,135.52970616258023,1.1144187559210366,437.5297061625802,234.11441875592104
477,455.74749996472565,6.548255242189441,499.74749996472565,378.54825524218944
477,173.9096029732399,81.73031285647198,324.9096029732399,375.730312856472
477,191.84867105530697,227.06187833834167,322.84867105530697,376.06187833834167
478,3.2819778849323313,17.729941886602262,406.2819778849323,328.72994188660226
478,219.98481564747084,1.5347241902717315,472.98481564747084,83.53472419027173
479,172.58911447692947,176.75018568141454,327.58911447692947,285.75018568141456
480,85.67343433969884,92.52336346338268,387.6734343396988,376.5233634633827
481,150.81274482741122,12.960004640829027,480.8127448274112,376.960004640829
481,186.8779439124383,193.71626379999338,338.8779439124383,376.7162637999934
481,1.5846585583955033,0.5795979293289122,225.58465855839552,373.5795979293289
482,277.989155849508,102.26345454704284,385.989155849508,247.26345454704284
483,122.41744358305266,198.90855226965402,405.41744358305266,373.908552269654
483,224.95950313321657,164.34918097011055,242.95950313321657,209.34918097011055
483,303.45254003934787,114.41812855947632,415.45254003934787,275.4181285594763
483,377.3173033899084,148.28900196693394,450.3173033899084,322.28900196693394
483,418.84338602764325,149.4951140256075,499.84338602764325,376.4951140256075
483,0.854800132197532,163.46670832304648,125.85480013219754,376.4667083230465
483,45.519301255920084,114.55075599737083,160.51930125592008,350.55075599737086
483,86.64572106547263,120.6223703510814,172.64572106547263,267.6223703510814
483,261.13603134284443,33.942809777571,299.13603134284443,197.942809777571
483,310.88019008367905,38.25819750974408,370.88019008367905,115.25819750974408
483,273.60300907361153,28.06525832122179,320.60300907361153,94.06525832122179
483,405.01811312644065,76.06779833687756,439.01811312644065,126.06779833687756
483,444.92515084854796,66.91087095556414,463.92515084854796,97.91087095556414
483,475.2180307874765,66.06255223128376,497.2180307874765,117.06255223128376
483,458.0486370851117,66.9440690853998,480.0486370851117,112.9440690853998
483,423.25770748925953,119.72088206239962,500.25770748925953,148.72088206239962
484,294.7094083297326,60.0245119647779,442.7094083297326,498.0245119647779
485,-1.757142222244056,58.6943011880237,338.24285777775594,503.6943011880237
486,51.83262743230081,275.44819503688336,148.8326274323008,435.44819503688336
486,3.1619476474920845,269.06738212129255,27.161947647492084,339.06738212129255
487,-0.0645040852065577,250.19893380387163,111.93549591479345,374.1989338038716
487,200.39087334310693,138.85632490833214,274.39087334310693,334.8563249083321
487,392.53819616898454,74.0872011555814,482.53819616898454,335.0872011555814
487,322.25624623426245,37.06559780860553,413.25624623426245,320.0655978086055
488,262.99340243778306,39.00380432580786,498.99340243778306,374.0038043258079
488,-1.2667202211826236,74.99859318004366,302.7332797788174,374.99859318004366
489,39.83400001633905,31.374380780601456,402.834000016339,378.3743807806014
489,380.3076423481929,86.39358959644852,498.3076423481929,359.3935895964485
489,14.937607740385374,138.00297794658843,266.9376077403854,377.00297794658843
489,300.9469306125308,128.4358479585681,315.9469306125308,187.4358479585681
490,2.803344026956225,183.9519968940603,214.8033440269562,374.9519968940603
490,188.3516112164661,134.92510236605688,424.3516112164661,376.9251023660569
491,7.514586701730622,3.1534496726819725,477.51458670173065,335.153449672682
491,418.8153121290065,10.724050272891034,500.8153121290065,165.72405027289102
491,0.9039684137648223,2.697681262705345,68.90396841376483,290.6976812627054
491,424.4436541344318,121.53225458415875,499.4436541344318,168.53225458415875
492,234.80874263856487,455.9114238127196,373.80874263856487,499.9114238127196
493,84.17260724695734,126.19473703007753,437.17260724695734,344.19473703007753
493,2.716687139053036,232.7575714477054,215.71668713905302,373.7575714477054
493,182.03935716876697,20.996332441991328,224.03935716876697,71.99633244199133
493,384.8349170985307,116.76672308932206,407.8349170985307,145.76672308932206
494,452.23593848528157,100.96349342428348,500.23593848528157,222.96349342428348
494,373.1623707584527,107.11811198971384,424.1623707584527,227.11811198971384
494,231.15036775515335,149.49882046307383,380.15036775515335,299.4988204630738
494,1.667234708952293,138.9133478824988,148.6672347089523,348.9133478824988
494,41.23209863594211,78.04618552640623,106.23209863594211,157.04618552640625
494,146.79872462867633,74.69736186697045,245.79872462867633,327.6973618669705
494,140.92189740403535,81.96137731651802,211.92189740403535,290.961377316518
494,217.92161556372142,89.39160412182054,253.92161556372142,177.39160412182054
494,297.47178373275915,74.7426632327064,365.47178373275915,309.7426632327064
494,398.47165827074235,59.51795720824401,464.47165827074235,292.517957208244
495,171.09285085263173,53.111813494434045,430.0928508526317,335.11181349443405
495,5.147771968749538,0.0730645536107204,431.14777196874957,318.0730645536107
496,91.70036354408646,172.22118507401177,173.70036354408646,237.22118507401177
496,172.72131988661778,174.43653590580695,250.72131988661778,226.43653590580695
496,332.3092090314746,166.27239372795552,391.3092090314746,201.27239372795552
496,430.2063621703735,150.87883467646444,452.2063621703735,201.87883467646444
496,462.0483097989337,150.08705669926746,481.0483097989337,204.08705669926746
496,449.029913303124,146.826196865362,465.029913303124,204.826196865362
496,157.12759676612802,171.26029322470657,171.12759676612802,202.26029322470657
496,117.8553796651901,152.12486917451676,146.8553796651901,201.12486917451676
496,150.0919768129865,174.99677127753665,163.0919768129865,195.99677127753665
497,78.406582054881,112.4775587001389,376.406582054881,497.4775587001389
498,-0.9118996465067823,21.168673080135846,396.08810035349325,400.1686730801358
498,19.130787953774984,45.77019987811832,292.130787953775,386.7701998781183
499,151.37178979537444,107.21029527757702,330.3717897953744,301.210295277577
499,145.94525686785198,119.94319108205124,476.945256867852,372.94319108205127
499,452.7708562505783,35.156729238770126,499.7708562505783,74.15672923877013
500,54.13147011150497,44.02253116313193,401.131470111505,400.02253116313193
501,91.78475686062257,99.6367406840331,316.78475686062257,241.6367406840331
502,29.092421673796764,111.3913970108218,100.09242167379676,252.3913970108218
502,118.56351258164398,102.23399309080392,192.56351258164398,270.2339930908039
502,188.41236861523632,103.10032748721184,313.41236861523635,323.10032748721187
502,312.0742751018451,129.0327786549511,329.0742751018451,166.0327786549511
503,375.5695780772942,251.35601990689196,500.5695780772942,333.35601990689196
503,362.87098879568913,259.68590763836585,459.87098879568913,374.68590763836585
503,352.35058133667377,216.59563912668312,448.35058133667377,372.5956391266831
503,468.73080732425603,289.7531262844934,499.73080732425603,375.7531262844934
504,12.391060386323204,29.966762760245842,464.3910603863232,240.96676276024584
505,0.9096424523021724,97.05897561727477,102.90964245230217,456.05897561727477
505,97.06184288066905,124.48774773517306,210.06184288066905,456.48774773517306
505,88.16046342404701,76.71298079862765,183.160463424047,454.71298079862765
505,185.9147704923783,100.64712748881345,303.9147704923783,451.64712748881345
505,244.34912650941368,75.35821077089474,324.3491265094137,438.35821077089474
505,278.8925480768592,109.27235351024092,406.8925480768592,457.2723535102409
505,337.5280808244211,94.19301494615348,409.5280808244211,441.1930149461535
505,381.1307613726811,98.1547016640807,446.1307613726811,314.1547016640807
505,404.3335916614332,58.4976676793093,500.3335916614332,453.4976676793093
506,223.29596102727584,37.81240954414929,337.29596102727584,368.8124095441493
507,373.2280704005924,9.926899761565615,440.2280704005924,43.926899761565615
507,277.2439261069153,10.202704205336353,338.2439261069153,40.20270420533635
507,197.22023400502917,11.082628150593688,252.22023400502917,36.08262815059369
507,86.83863163398217,6.797716131492908,150.83863163398217,38.797716131492905
507,39.79331367032697,1.1369400685237991,109.79331367032697,45.1369400685238
507,397.9294967523756,57.07835141661077,405.9294967523756,74.07835141661077
508,0.6785785800902886,203.9446472568112,82.67857858009029,318.9446472568112
508,34.45938372992384,207.90925270133988,147.45938372992384,236.90925270133988
508,185.06219509629852,191.4314024364079,274.0621950962985,266.4314024364079
508,258.6410913310375,186.54086225319037,327.6410913310375,267.54086225319037
508,311.4773421121414,171.9000487720855,501.4773421121414,308.9000487720855
509,189.97555719410786,167.77818963633013,406.97555719410786,397.7781896363301
510,6.6209168608333755,136.82521314929585,286.6209168608334,455.82521314929585
510,257.7196369352183,200.70235101749844,319.7196369352183,241.70235101749844
511,117.40450986082331,242.38414609824315,247.4045098608233,321.38414609824315
511,90.16077652105369,194.0570501453011,108.16077652105369,209.0570501453011
512,51.82418160620864,-1.3138140880815286,485.82418160620864,372.68618591191847
513,264.04158019290816,152.96371290713026,299.04158019290816,199.96371290713026
513,206.5356461950915,172.8618380742337,263.5356461950915,202.8618380742337
513,184.29691478671197,148.3203092042105,217.29691478671197,191.3203092042105
513,83.97252776959759,195.24885900213155,105.97252776959759,228.24885900213155
513,128.74914301360639,143.10963178691478,159.74914301360639,195.10963178691478
513,152.10554831285006,156.0617961407514,181.10554831285006,192.0617961407514
514,1.7894719247547641,10.075614424413033,409.78947192475476,377.07561442441306
514,232.4396640690557,86.45555131859865,349.4396640690557,377.4555513185986
514,267.972766083485,278.2496060087553,496.972766083485,375.2496060087553
